#RAT ;#SONO;INICIO ;FIM;DURAÇÃO;EMG -8;EMG -6;EMG -4;EMG -2;EMG AP1;EMG AP2;REM -8;REM -6;REM -4;REM -2;REM AP1;REM AP2;NREM -8;NREM -6;NREM -4;NREM -2;NREM AP1;NREM AP2
R12;REM;3342.1;3346.1;4.00;0.0178;0.0144;0.0145;0.0173;0.0158;0.0298;0.4730;0.7935;10.147;0.4578;0.5646;13.504;37.537;46.768;18.387;19.150;0.2823;0.0000
R12;REM;21210.1;21214.1;4.00;0.0089;0.0050;0.0037;0.0040;0.0040;0.0179;0.1678;0.9613;10.223;0.5035;0.1755;0.4044;229.034;74.692;23.499;126.343;15.335;0.0000
R12;REM;14189.1;14193.2;4.10;0.0656;0.0068;0.0035;0.0016;0.0058;0.0097;0.8545;19.684;26.245;0.3586;13.199;0.9003;43.259;11.902;13.428;0.7706;35.324;0.0000
R12;REM;18332.1;18336.2;4.10;0.0013;0.0012;0.0012;0.0012;0.0014;0.1692;0.2670;0.7782;14.648;0.1907;0.1755;0.4807;99.258;37.155;36.469;131.683;0.3586;0.0000
R12;REM;8454.1;8458.3;4.20;0.0003;0.0003;0.0003;0.0003;0.0006;0.0238;0.2975;24.719;89.417;11.368;0.1068;0.0229;90.256;43.106;10.986;51.804;19.073;0.0000
R12;REM;4557.1;4561.4;4.30;0.0471;0.0011;0.0008;0.0016;0.0026;0.0198;41.885;112.305;0.8392;31.128;0.7553;31.433;28.458;0.4959;16.403;20.752;0.3586;0.0000
R12;REM;17950.1;17954.5;4.40;0.0021;0.0015;0.0014;0.0014;0.0014;0.0505;0.1678;0.8316;0.8392;0.4272;0.3738;0.7095;20.752;25.635;42.267;92.087;0.2289;0.0000
R12;REM;23203.1;23207.5;4.40;0.0061;0.0018;0.0007;0.0005;0.0006;0.0156;0.6714;0.6332;43.564;0.9384;0.0534;0.0153;73.395;19.150;16.174;57.449;0.2289;0.0000
R12;REM;28269.1;28273.9;4.80;0.0009;0.0009;0.0008;0.0009;0.0009;0.0159;0.5264;0.6790;14.343;0.2670;0.1373;0.3891;31.433;87.357;60.425;145.721;49.057;0.0000
R12;REM;9813.1;9818.1;5.00;0.0480;0.0077;0.0046;0.0014;0.0006;0.0088;26.703;12.665;14.954;0.2518;0.0305;17.776;45.090;19.379;29.373;85.373;82.245;63.477
R12;REM;19032.1;19037.1;5.00;0.0009;0.0009;0.0008;0.0008;0.0008;0.0045;20.142;20.752;31.815;0.6104;0.1297;18.845;271.225;40.817;37.079;117.340;0.1297;0.1526
R12;REM;8743.1;8748.2;5.10;0.0005;0.0003;0.0003;0.0003;0.0002;0.0035;10.834;65.765;85.068;40.054;0.6866;0.1221;109.100;46.158;16.556;28.687;55.923;18.311
R12;REM;4501.1;4506.6;5.50;0.0006;0.0006;0.0058;0.0057;0.0040;0.0077;0.3281;18.768;76.065;42.267;0.7172;25.406;45.471;28.000;0.6561;12.894;0.3967;0.3510
R12;REM;20939.1;20944.6;5.50;0.0000;0.0000;0.0000;0.0000;0.0000;0.0001;0.2823;12.207;17.014;0.5798;44.937;0.1678;262.527;40.665;42.572;115.814;19.455;0.1526
R12;REM;22941.1;22946.7;5.60;0.0008;0.0004;0.0003;0.0003;0.0002;0.0004;0.4425;14.038;30.518;0.7629;0.6332;0.0305;507.126;58.136;36.469;108.490;65.765;30.136
R12;REM;13674.1;13679.8;5.70;0.0008;0.0006;0.0005;0.0005;0.0005;0.0005;0.4807;12.054;43.945;11.444;0.0305;0.1144;138.245;47.607;14.191;189.438;0.1068;0.0687
R12;REM;1089.1;1094.8;5.70;0.0007;0.0006;0.0006;0.0006;0.0006;0.0005;0.7782;14.572;26.245;45.166;62.637;0.4959;57.678;19.455;21.667;20.828;12.589;432.358
R12;REM;28160.1;28166.0;5.90;0.0008;0.0009;0.0008;0.0008;0.0008;0.0014;0.4044;0.8316;10.452;0.1984;0.7172;0.0610;54.016;47.455;61.417;364.685;14.877;0.6409
R12;REM;4972.1;4978.1;6.00;0.0256;0.0157;0.0021;0.0019;0.0024;0.0041;10.071;22.354;13.809;13.351;0.0992;25.787;21.439;20.447;15.182;17.471;22.430;0.5417
R12;REM;13389.1;13395.1;6.00;0.0011;0.0011;0.0017;0.0019;0.0017;0.0019;0.3662;12.207;39.139;0.5264;0.1221;0.5188;216.293;18.082;16.479;57.831;165.482;20.828
R12;REM;7304.1;7310.4;6.30;0.0011;0.0006;0.0006;0.0005;0.0004;0.0005;12.665;42.953;31.357;27.924;14.267;0.5646;317.688;66.223;55.389;137.024;101.929;30.136
R12;REM;1522.1;1528.4;6.30;0.0009;0.0009;0.0009;0.0009;0.0010;0.0012;0.4578;28.000;116.730;12.131;0.9308;17.929;144.043;49.362;10.300;178.375;47.760;13.275
R12;REM;17985.1;17991.4;6.30;0.0006;0.0007;0.0006;0.0006;0.0007;0.0010;0.4349;0.7248;11.368;0.2213;0.1450;0.0610;75.684;55.923;57.373;195.541;408.096;44.479
R12;REM;28380.1;28386.4;6.30;0.0013;0.0003;0.0004;0.0003;0.0004;0.0010;0.4120;10.376;20.599;0.7324;0.0458;0.2441;43.030;23.727;61.722;73.853;17.014;0.6638
R12;REM;27682.1;27688.5;6.40;0.0011;0.0025;0.0014;0.0011;0.0011;0.0011;0.1678;31.662;11.978;0.3891;0.6027;0.5112;35.629;14.191;47.455;30.212;50.201;16.022
R12;REM;9823.1;9829.6;6.50;0.0088;0.0483;0.0058;0.0008;0.0018;0.0045;17.776;76.294;47.913;0.0916;0.4578;14.954;13.275;25.635;12.817;28.305;19.608;13.580
R12;REM;7458.1;7464.7;6.60;0.0006;0.0006;0.0005;0.0005;0.0005;0.0004;0.7172;14.648;32.120;12.817;13.046;47.226;221.863;88.882;25.711;69.962;0.5417;0.5722
R12;REM;9625.1;9631.7;6.60;0.0005;0.0005;0.0006;0.0011;0.0006;0.0007;0.6943;18.387;25.940;31.586;0.5417;0.3967;217.133;33.951;33.264;47.073;0.4807;0.2747
R12;REM;21578.1;21584.7;6.60;0.0025;0.0027;0.0024;0.0025;0.0018;0.0039;0.9232;22.888;11.826;19.455;0.3815;0.3510;216.522;42.419;68.893;171.432;12.512;30.212
R12;REM;636.1;642.8;6.70;0.0052;0.0053;0.0035;0.0011;0.0011;0.0043;22.888;19.531;107.651;79.880;10.910;0.4196;88.730;94.833;37.003;42.343;70.419;0.2670
R12;REM;28714.1;28720.8;6.70;0.0119;0.0005;0.0005;0.0005;0.0009;0.0024;0.9003;0.8545;11.215;0.9003;0.1602;0.9689;26.627;25.482;20.370;64.926;17.395;0.3662
R12;REM;20229.1;20236.0;6.90;0.0008;0.0006;0.0005;0.0005;0.0005;0.0005;0.0992;49.744;371.704;131.454;373.840;59.509;72.403;16.556;10.300;0.9766;11.902;0.9460
R12;REM;23336.1;23343.0;6.90;0.0011;0.0017;0.0007;0.0003;0.0003;0.0014;0.1144;34.637;60.349;0.2365;0.1526;0.0458;0.6027;12.894;11.673;36.545;78.049;48.294
R12;REM;15316.1;15323.1;7.00;0.0005;0.0004;0.0005;0.0005;0.0005;0.0004;0.3738;42.191;112.915;177.307;0.1144;12.207;71.793;38.071;35.934;10.300;111.084;233.383
R12;REM;858.1;865.2;7.10;0.0011;0.0005;0.0005;0.0005;0.0005;0.0005;23.804;85.983;55.542;35.400;10.834;0.5188;110.321;25.940;49.210;124.817;74.387;27.466
R12;REM;23004.1;23011.2;7.10;0.0091;0.0060;0.0010;0.0005;0.0002;0.0018;24.261;36.697;0.5569;0.3128;49.438;28.458;32.730;10.757;20.676;32.806;0.1678;0.6714
R12;REM;22783.1;22790.3;7.20;0.0006;0.0004;0.0002;0.0003;0.0003;0.0002;0.5646;18.463;17.014;0.3128;0.1984;0.9232;832.901;29.144;24.948;107.803;0.8163;48.294
R12;REM;28470.1;28477.3;7.20;0.0019;0.0014;0.0007;0.0005;0.0003;0.0005;0.7553;0.7782;13.504;44.632;21.896;21.591;18.997;121.002;51.880;58.289;19.836;0.7477
R12;REM;28769.1;28776.3;7.20;0.0002;0.0002;0.0002;0.0004;0.0002;0.0002;0.1602;47.760;14.343;0.5569;0.0839;0.3052;146.637;0.9766;0.9537;83.771;19.836;0.7477
R12;REM;17929.1;17936.4;7.30;0.0006;0.0006;0.0006;0.0006;0.0006;0.0006;0.4425;43.030;38.147;10.986;0.2213;0.4349;11.368;22.964;49.057;209.427;60.425;15.182
R12;REM;18809.1;18816.4;7.30;0.0007;0.0008;0.0008;0.0007;0.0007;0.0006;0.2747;21.667;40.207;143.204;76.752;27.847;99.716;41.122;11.673;14.343;38.681;20.218
R12;REM;7979.1;7986.5;7.40;0.0025;0.0020;0.0008;0.0005;0.0005;0.0004;11.978;10.529;36.469;23.117;0.6866;0.1678;348.587;58.365;36.316;39.978;890.579;221.252
R12;REM;17550.1;17557.5;7.40;0.0005;0.0006;0.0005;0.0005;0.0006;0.0005;14.954;41.428;30.212;0.9003;0.2975;0.3586;127.411;45.547;61.569;147.934;56.686;11.368
R12;REM;28324.1;28331.5;7.40;0.0004;0.0003;0.0003;0.0004;0.0003;0.0002;10.605;13.428;0.9079;0.8087;18.005;31.433;167.618;54.550;44.174;0.9918;0.1373;0.1755
R12;REM;21154.1;21161.6;7.50;0.0005;0.0005;0.0008;0.0006;0.0006;0.0005;13.275;26.016;25.024;56.915;88.120;130.997;84.000;59.204;22.278;14.496;0.8392;21.439
R12;REM;17748.1;17755.7;7.60;0.0005;0.0005;0.0005;0.0005;0.0006;0.0005;0.2213;20.828;30.289;42.877;146.561;19.836;189.667;42.953;30.060;41.122;254.288;88.043
R12;REM;20837.1;20844.9;7.80;0.0005;0.0005;0.0005;0.0007;0.0009;0.0010;11.444;0.6104;27.618;18.539;0.1984;0.2136;97.427;34.561;17.471;43.411;132.370;107.956
R12;REM;22048.1;22055.9;7.80;0.0011;0.0011;0.0012;0.0013;0.0013;0.0013;0.4883;24.567;12.741;0.5569;0.2975;0.2289;34.256;49.438;32.272;235.214;10.605;11.063
R12;REM;28494.1;28501.9;7.80;0.0006;0.0005;0.0005;0.0003;0.0002;0.0001;12.283;119.705;69.199;48.752;30.594;30.289;186.005;39.444;18.692;17.166;0.2365;0.2899
R12;REM;18587.1;18595.0;7.90;0.0008;0.0008;0.0008;0.0008;0.0012;0.0009;0.3357;44.785;39.520;133.667;12.665;0.5341;165.787;56.686;32.883;31.204;48.370;34.103
R12;REM;21755.1;21763.0;7.90;0.0002;0.0002;0.0002;0.0002;0.0002;0.0002;19.073;54.245;64.240;55.008;15.945;0.6790;84.457;32.578;51.117;67.520;0.1831;0.0916
R12;REM;16011.1;16019.1;8.00;0.0006;0.0006;0.0006;0.0006;0.0005;0.0005;10.376;0.7935;18.921;37.308;134.964;122.986;192.184;31.433;14.496;16.861;0.2899;0.5569
R12;REM;16060.1;16068.1;8.00;0.0009;0.0008;0.0006;0.0006;0.0006;0.0005;0.7553;41.122;34.561;63.324;23.422;41.580;125.732;34.256;16.556;11.978;0.4501;0.4501
R12;REM;8867.1;8875.2;8.10;0.0002;0.0003;0.0003;0.0003;0.0003;0.0003;0.1831;76.828;147.400;61.493;58.136;73.547;60.272;29.526;20.752;18.387;94.986;133.667
R12;REM;11514.1;11522.2;8.10;0.0005;0.0003;0.0004;0.0003;0.0004;0.0003;0.3738;15.564;22.812;0.5569;63.171;18.768;61.722;59.967;38.528;97.351;37.231;13.046
R12;REM;20242.1;20250.2;8.10;0.0098;0.0071;0.0006;0.0005;0.0005;0.0005;53.406;19.073;135.117;17.395;10.452;144.653;24.033;28.839;12.360;51.804;77.362;83.466
R12;REM;25381.1;25389.2;8.10;0.0006;0.0008;0.0007;0.0008;0.0007;0.0005;0.6866;50.659;53.177;40.283;75.607;83.160;116.806;58.594;60.577;39.291;0.3738;26.093
R12;REM;26815.1;26823.2;8.10;0.0013;0.0013;0.0011;0.0011;0.0011;0.0011;0.2899;25.253;14.801;0.2060;0.7553;105.286;187.378;59.814;64.697;135.422;0.2289;0.3967
R12;REM;7884.1;7892.6;8.50;0.0040;0.0015;0.0005;0.0003;0.0002;0.0002;13.046;37.155;136.490;156.174;56.839;53.482;155.258;29.449;0.6561;18.616;0.7477;13.657
R12;REM;19235.1;19243.7;8.60;0.0005;0.0005;0.0005;0.0005;0.0005;0.0006;0.8469;169.296;119.019;44.022;125.122;104.904;127.792;34.561;15.945;14.725;0.7935;0.9232
R12;REM;20786.1;20794.7;8.60;0.0002;0.0002;0.0002;0.0002;0.0002;0.0002;0.2670;22.354;22.659;202.103;18.234;31.357;33.188;0.6561;30.823;0.7935;0.5188;22.278
R12;REM;13544.1;13552.8;8.70;0.0025;0.0024;0.0024;0.0019;0.0011;0.0006;0.7172;0.8774;34.866;38.528;14.572;46.082;43.030;12.512;19.226;25.558;0.3510;20.752
R12;REM;7945.1;7954.2;9.10;0.0003;0.0003;0.0003;0.0003;0.0003;0.0003;0.2823;89.951;109.558;98.038;23.956;19.150;313.950;49.057;27.924;25.940;0.7477;11.597
R12;REM;10219.1;10228.2;9.10;0.0000;0.0008;0.0000;0.0002;0.0001;0.0000;13.428;67.596;53.482;0.8392;56.610;286.611;110.855;19.226;44.098;72.250;0.3052;0.4349
R12;REM;20988.1;20997.2;9.10;0.0002;0.0002;0.0002;0.0000;0.0000;0.0000;0.4044;54.092;83.160;155.182;34.714;47.455;123.138;55.542;35.172;0.7248;74.768;0.9689
R12;REM;21544.1;21553.2;9.10;0.0006;0.0004;0.0004;0.0003;0.0015;0.0003;0.7858;88.959;168.228;0.4883;0.2823;0.2441;165.100;15.640;27.313;125.885;24.109;40.817
R12;REM;23024.1;23033.2;9.10;0.0085;0.0064;0.0004;0.0005;0.0002;0.0001;10.529;39.368;66.681;0.6409;32.425;91.400;172.043;25.482;0.6714;11.520;68.893;36.087
R12;REM;7774.1;7783.4;9.30;0.0024;0.0022;0.0015;0.0008;0.0008;0.0003;18.005;15.106;49.133;56.458;40.512;29.144;110.321;78.278;32.501;22.583;0.7019;19.073
R12;REM;18293.1;18302.5;9.40;0.0013;0.0010;0.0008;0.0006;0.0005;0.0007;0.5035;13.351;20.447;53.558;77.362;79.422;37.689;37.460;27.924;41.962;0.1144;0.2289
R12;REM;26292.1;26301.5;9.40;0.0019;0.0018;0.0018;0.0018;0.0017;0.0018;12.512;25.253;0.9995;0.4883;0.0687;0.2975;126.038;29.373;34.485;262.909;0.1144;0.2289
R12;REM;18422.1;18431.6;9.50;0.0005;0.0005;0.0004;0.0004;0.0004;0.0006;0.2289;36.011;65.384;13.733;13.351;0.5798;105.438;23.575;13.504;14.343;26.398;20.370
R12;REM;13164.1;13173.7;9.60;0.0005;0.0024;0.0018;0.0005;0.0018;0.0008;0.2289;23.117;124.359;25.864;30.365;57.449;308.456;53.482;0.8163;39.597;0.1068;0.6866
R12;REM;7261.1;7270.8;9.70;0.0008;0.0007;0.0005;0.0006;0.0003;0.0003;0.4730;30.441;156.708;244.827;76.599;155.716;123.749;27.008;0.8011;0.3891;12.131;21.210
R12;REM;21038.1;21047.8;9.70;0.0002;0.0002;0.0002;0.0002;0.0001;0.0002;21.591;66.223;55.466;28.687;31.281;10.834;223.846;36.240;26.093;66.681;0.8698;40.283
R12;REM;28425.1;28434.8;9.70;0.0000;0.0000;0.0000;0.0000;0.0000;0.0000;0.7172;17.776;13.046;39.902;42.038;60.425;85.602;68.130;37.003;22.049;0.1678;0.2670
R12;REM;27656.1;27665.9;9.80;0.0012;0.0013;0.0016;0.0011;0.0010;0.0010;0.1678;138.092;282.593;172.882;154.953;218.353;296.173;11.215;0.9537;15.640;23.499;13.046
R12;REM;25955.1;25965.0;9.90;0.0006;0.0005;0.0005;0.0007;0.0006;0.0011;0.2670;15.564;72.250;117.188;41.428;45.090;299.683;40.588;0.8469;0.7858;0.1144;0.1297
R12;REM;15168.1;15178.1;10.00;0.0010;0.0010;0.0007;0.0005;0.0005;0.0006;0.5264;55.847;114.212;85.373;73.318;71.640;114.059;24.796;16.632;0.8316;39.444;90.408
R12;REM;28449.1;28459.1;10.00;0.0003;0.0002;0.0002;0.0000;0.0000;0.0000;0.9460;0.7324;25.940;129.776;30.518;41.428;55.161;86.212;16.022;0.6409;23.422;18.997
R12;REM;7550.1;7560.2;10.10;0.0005;0.0005;0.0005;0.0004;0.0002;0.0002;0.2594;10.910;29.602;42.038;68.359;10.071;382.767;57.678;34.561;59.052;22.888;27.618
R12;REM;7681.1;7691.2;10.10;0.0047;0.0034;0.0038;0.0031;0.0028;0.0025;0.2823;17.548;12.131;19.836;24.872;74.158;96.130;47.379;50.583;119.705;40.970;66.223
R12;REM;18448.1;18458.2;10.10;0.0008;0.0006;0.0007;0.0006;0.0005;0.0004;0.4807;26.855;64.316;29.144;27.695;0.8621;125.198;35.019;0.5035;10.986;0.4883;0.2289
R12;REM;23312.1;23322.5;10.40;0.0350;0.0009;0.0005;0.0002;0.0002;0.0005;50.125;21.362;13.657;0.1221;0.1450;0.2213;18.845;45.624;32.578;392.303;17.166;0.4807
R12;REM;28520.1;28530.5;10.40;0.0003;0.0003;0.0002;0.0002;0.0002;0.0001;10.986;95.673;62.561;0.2975;0.8240;0.6180;188.293;24.338;20.981;76.981;0.4272;0.9232
R12;REM;8780.1;8790.6;10.50;0.0009;0.0007;0.0004;0.0003;0.0002;0.0002;10.300;16.022;35.172;45.853;49.362;20.981;174.942;42.648;22.583;68.359;10.986;0.2060
R12;REM;10863.1;10873.8;10.70;0.0006;0.0006;0.0007;0.0007;0.0005;0.0005;0.4501;38.834;122.604;134.201;179.901;173.035;79.498;16.098;26.398;25.711;20.905;0.6256
R12;REM;22166.1;22176.8;10.70;0.0008;0.0008;0.0008;0.0008;0.0009;0.0008;0.2670;16.937;104.599;52.185;160.675;341.110;77.744;54.703;34.866;18.616;25.635;166.168
R12;REM;28242.1;28252.8;10.70;0.0002;0.0002;0.0002;0.0002;0.0002;0.0002;10.605;20.142;28.229;79.956;48.828;92.392;143.051;55.466;37.460;24.948;0.1144;0.1144
R12;REM;11899.1;11909.9;10.80;0.0006;0.0008;0.0008;0.0006;0.0006;0.0006;19.684;26.169;20.981;232.391;207.825;13.962;165.787;54.321;12.970;0.5798;0.8011;0.7706
R12;REM;22284.1;22294.9;10.80;0.0068;0.0038;0.0013;0.0009;0.0005;0.0005;0.4272;61.569;18.463;0.3433;0.8774;22.354;161.819;39.597;20.370;68.130;0.9613;14.343
R12;REM;26840.1;26850.9;10.80;0.0018;0.0018;0.0017;0.0019;0.0017;0.0017;0.1373;14.343;0.8011;0.7553;0.1297;0.2518;106.201;28.458;52.414;87.128;43.869;12.054
R12;REM;28356.1;28366.9;10.80;0.0005;0.0003;0.0002;0.0002;0.0002;0.0000;18.692;23.499;24.414;0.0381;20.142;78.659;110.321;39.749;10.452;60.883;0.7401;0.2136
R12;REM;26950.1;26961.0;10.90;0.0017;0.0017;0.0016;0.0017;0.0016;0.0017;10.452;13.199;0.7858;14.877;23.727;25.406;399.170;38.834;36.697;16.708;0.5341;0.4272
R12;REM;28133.1;28144.0;10.90;0.0003;0.0004;0.0003;0.0003;0.0003;0.0004;0.4501;13.962;31.815;146.713;64.545;89.188;74.692;27.313;24.567;0.5188;24.872;0.9460
R12;REM;9696.1;9707.1;11.00;0.0007;0.0007;0.0007;0.0006;0.0007;0.0006;0.7935;78.430;81.406;21.667;17.471;17.624;153.961;48.676;42.496;136.185;110.321;13.733
R12;REM;15664.1;15675.1;11.00;0.0010;0.0008;0.0005;0.0005;0.0005;0.0005;0.4730;13.657;29.526;31.433;21.362;36.850;459.213;50.735;17.090;19.226;0.3052;0.1450
R12;REM;28642.1;28653.2;11.10;0.0008;0.0006;0.0005;0.0004;0.0002;0.0002;10.986;19.150;12.131;19.302;34.637;16.251;134.659;91.858;42.877;66.071;0.0458;0.1450
R12;REM;26407.1;26418.3;11.20;0.0017;0.0017;0.0016;0.0017;0.0015;0.0017;0.2365;47.607;90.866;131.073;30.823;79.803;195.847;21.591;18.158;13.733;0.3510;27.466
R12;REM;17123.1;17134.4;11.30;0.0008;0.0008;0.0007;0.0008;0.0006;0.0008;0.9384;10.147;32.501;15.564;10.376;54.092;381.088;36.621;16.098;15.717;0.0839;0.3357
R12;REM;19648.1;19659.4;11.30;0.0011;0.0009;0.0008;0.0006;0.0006;0.0006;0.7248;16.174;26.550;15.335;0.7248;0.0916;240.250;55.237;34.332;34.561;0.7858;0.3052
R12;REM;7746.1;7757.5;11.40;0.0004;0.0003;0.0003;0.0003;0.0003;0.0003;0.1526;12.207;23.956;58.136;0.2594;0.8621;89.645;19.379;54.474;21.591;14.267;0.8621
R12;REM;28577.1;28588.5;11.40;0.0000;0.0002;0.0002;0.0000;0.0003;0.0000;0.4272;62.561;107.269;552.597;192.032;36.545;213.318;22.354;13.809;0.5112;0.1907;0.1755
R12;REM;15431.1;15442.6;11.50;0.0006;0.0006;0.0009;0.0006;0.0011;0.0011;0.4959;30.212;93.155;157.471;248.108;203.552;122.147;30.289;12.283;17.166;0.0687;0.0458
R12;REM;22250.1;22261.9;11.80;0.0010;0.0008;0.0016;0.0014;0.0006;0.0006;0.6332;57.449;228.043;55.847;95.215;18.463;132.904;39.215;10.681;32.501;22.278;0.6943
R12;REM;23047.1;23058.9;11.80;0.0012;0.0011;0.0005;0.0004;0.0002;0.0001;0.6027;0.7706;24.719;56.152;68.512;56.915;107.040;51.727;27.161;13.046;0.3128;0.3815
R12;REM;27018.1;27029.9;11.80;0.0014;0.0014;0.0014;0.0014;0.0014;0.0014;0.2899;11.749;20.142;68.359;251.999;209.198;124.359;62.637;10.376;0.5875;0.2365;0.4349
R12;REM;22111.1;22123.4;12.30;0.0007;0.0006;0.0007;0.0006;0.0006;0.0006;0.1450;16.785;44.250;23.041;0.9918;69.962;248.795;50.812;20.752;17.700;0.2594;0.1678
R12;REM;23706.1;23718.4;12.30;0.0009;0.0008;0.0007;0.0007;0.0005;0.0006;0.7324;31.586;29.297;23.422;0.2441;0.9689;169.220;18.616;22.888;59.586;0.3052;0.7324
R12;REM;27377.1;27389.4;12.30;0.0018;0.0014;0.0015;0.0014;0.0013;0.0014;0.2213;26.932;47.913;34.866;34.256;21.667;144.806;12.665;26.627;20.599;0.2518;0.1907
R12;REM;7825.1;7837.5;12.40;0.0003;0.0003;0.0003;0.0003;0.0003;0.0003;0.4272;0.7019;32.883;64.011;0.7553;0.4196;74.692;26.932;56.610;28.305;0.4425;0.2213
R12;REM;10991.1;11003.6;12.50;0.0003;0.0003;0.0003;0.0003;0.0002;0.0002;0.3128;68.970;58.441;19.531;88.806;27.847;135.803;15.793;40.741;88.348;0.0610;0.1678
R12;REM;7657.1;7669.9;12.80;0.0005;0.0016;0.0003;0.0005;0.0002;0.0003;11.215;23.422;11.139;14.191;28.305;0.0534;78.659;83.923;27.542;65.765;0.1144;0.3815
R12;REM;15198.1;15211.2;13.10;0.0088;0.0047;0.0011;0.0009;0.0008;0.0007;0.3128;26.093;115.051;105.896;119.858;49.057;73.853;16.403;10.986;0.9842;0.6714;0.9003
R12;REM;5624.1;5637.3;13.20;0.0006;0.0005;0.0005;0.0005;0.0008;0.0005;0.2747;13.962;13.962;13.046;28.610;24.719;56.229;12.741;30.823;21.515;0.5951;0.7019
R12;REM;19729.1;19742.3;13.20;0.0008;0.0006;0.0006;0.0006;0.0006;0.0006;0.3586;39.978;98.190;91.095;30.899;62.485;87.662;34.943;0.4883;0.6714;0.4349;0.8011
R12;REM;22802.1;22815.7;13.60;0.0018;0.0011;0.0009;0.0008;0.0005;0.0005;0.1755;0.8545;11.368;10.834;20.523;0.5569;220.337;54.550;61.264;121.841;0.2289;0.3357
R12;REM;15237.1;15251.0;13.90;0.0091;0.0075;0.0044;0.0012;0.0012;0.0010;0.3662;19.226;43.793;20.065;0.8163;0.3433;178.223;45.624;19.608;40.665;51.956;41.809
R12;REM;28608.1;28622.1;14.00;0.0017;0.0013;0.0012;0.0004;0.0001;0.0000;17.471;0.7019;75.226;75.989;76.065;23.651;60.730;67.139;29.297;0.9613;28.763;41.962
R12;REM;15577.1;15591.2;14.10;0.0008;0.0006;0.0011;0.0006;0.0006;0.0006;0.0992;36.087;136.490;175.705;113.907;82.703;116.043;34.943;33.798;10.529;0.2441;0.2289
R12;REM;13604.1;13618.3;14.20;0.0030;0.0014;0.0004;0.0004;0.0003;0.0004;0.2365;45.242;51.804;34.866;74.539;32.578;174.637;15.106;0.5493;21.744;0.5264;10.834
R12;REM;16117.1;16131.4;14.30;0.0006;0.0006;0.0006;0.0006;0.0005;0.0005;13.580;76.218;22.812;0.4730;0.8392;0.8774;97.580;13.809;40.131;49.973;23.117;55.542
R12;REM;13515.1;13529.8;14.70;0.0008;0.0004;0.0003;0.0003;0.0003;0.0003;21.973;184.174;46.158;0.6485;21.286;10.986;102.615;27.390;42.419;91.171;0.8240;18.692
R12;REM;7851.1;7865.8;14.70;0.0077;0.0024;0.0005;0.0002;0.0002;0.0002;0.6104;18.158;17.700;68.054;80.566;31.357;190.964;23.193;51.956;18.845;11.139;21.744
R12;REM;23173.1;23188.3;15.20;0.0001;0.0002;0.0002;0.0001;0.0000;0.0001;0.4196;19.913;17.700;62.943;64.240;55.161;89.645;50.888;76.065;83.618;0.3433;0.3052
R12;REM;15466.1;15481.5;15.40;0.0043;0.0015;0.0010;0.0010;0.0010;0.0006;0.6943;22.430;16.632;30.823;14.114;62.714;72.250;15.335;11.749;25.024;0.2594;0.3586
R12;REM;26457.1;26472.6;15.50;0.0014;0.0014;0.0014;0.0014;0.0014;0.0014;21.057;23.956;23.346;23.651;16.479;164.566;97.351;41.733;26.550;21.133;0.2213;0.1602
R12;REM;20008.1;20023.7;15.60;0.0007;0.0006;0.0006;0.0006;0.0006;0.0006;0.4425;17.471;116.806;17.700;0.2823;17.319;100.250;38.452;15.640;19.608;0.4578;0.0839
R12;REM;22016.1;22031.9;15.80;0.0013;0.0014;0.0009;0.0008;0.0008;0.0007;0.5188;23.422;35.248;0.2899;12.131;19.302;145.493;46.997;36.392;288.620;0.2747;0.0814
R12;REM;15493.1;15509.0;15.90;0.0050;0.0055;0.0047;0.0037;0.0020;0.0011;0.0916;0.9308;13.123;0.4196;13.809;0.4730;57.755;59.357;64.011;73.395;0.9232;0.4730
R12;REM;28686.1;28702.6;16.50;0.0003;0.0003;0.0002;0.0001;0.0001;0.0000;0.5035;15.030;28.534;24.109;0.7248;46.997;278.091;52.032;32.272;46.310;13.428;24.338
R12;REM;11031.1;11048.2;17.10;0.0005;0.0005;0.0005;0.0003;0.0003;0.0003;0.2899;29.602;29.068;0.7935;0.9995;22.583;56.381;0.7401;11.368;73.776;0.3510;0.4272
R12;REM;16175.1;16192.3;17.20;0.0008;0.0008;0.0006;0.0006;0.0008;0.0007;0.4578;15.717;19.684;46.616;44.937;37.231;280.075;84.000;64.240;34.332;0.7706;17.776
R12;REM;22872.1;22889.3;17.20;0.0001;0.0000;0.0000;0.0001;0.0002;0.0000;17.548;0.7706;0.9308;41.504;60.196;29.984;158.310;92.316;56.686;32.043;17.242;24.185
R12;REM;19268.1;19285.7;17.60;0.0005;0.0005;0.0005;0.0005;0.0005;0.0005;0.8011;22.583;0.7935;11.444;0.5722;11.749;250.778;31.509;46.921;181.274;11.063;13.351
R12;REM;20152.1;20170.1;18.00;0.0011;0.0007;0.0006;0.0006;0.0005;0.0005;0.4272;83.694;76.294;104.218;120.468;105.972;38.681;0.4883;0.6180;10.986;38.223;15.259
R12;REM;19768.1;19786.3;18.20;0.0009;0.0008;0.0007;0.0006;0.0006;0.0005;0.7477;0.5264;0.8011;0.2060;0.0992;22.354;30.746;19.608;15.488;100.327;0.2975;0.8621
R12;REM;23081.1;23099.3;18.20;0.0005;0.0008;0.0003;0.0002;0.0001;0.0000;0.6943;12.207;22.964;15.182;72.250;117.340;40.894;79.041;18.463;17.700;0.6180;0.7019
R12;REM;16229.1;16247.6;18.50;0.0010;0.0008;0.0007;0.0007;0.0006;0.0006;0.2747;35.858;28.458;27.008;24.643;36.469;257.950;38.528;0.7477;13.580;0.9003;0.8011
R12;REM;20065.1;20083.7;18.60;0.0008;0.0008;0.0007;0.0008;0.0006;0.0006;0.9537;60.501;30.518;0.6409;0.7095;0.2365;141.525;43.793;40.283;107.269;24.185;72.632
R12;REM;22189.1;22208.5;19.40;0.0044;0.0022;0.0008;0.0008;0.0007;0.0007;0.8392;17.471;44.785;32.730;56.763;44.250;123.672;52.109;0.8926;0.5875;128.784;65.308
R12;REM;22968.1;22987.5;19.40;0.0005;0.0004;0.0004;0.0003;0.0001;0.0001;16.479;14.572;27.466;238.724;70.953;97.504;101.776;45.929;29.449;0.8392;12.817;0.3052
R12;REM;20114.1;20135.3;21.20;0.0006;0.0006;0.0006;0.0006;0.0005;0.0006;12.512;28.763;0.9689;0.7477;15.335;10.452;90.866;80.719;51.193;34.409;18.692;0.7477
R12;REM;11928.1;11952.5;24.40;0.0019;0.0008;0.0005;0.0005;0.0005;0.0005;0.3204;26.093;34.714;0.7629;0.5569;12.665;38.757;13.199;0.5646;16.403;0.1907;0.1526
R12;REM;11328.1;11356.8;28.70;0.0003;0.0003;0.0005;0.0004;0.0004;0.0003;0.2365;37.155;14.572;20.294;38.986;89.111;294.418;50.659;37.613;17.776;34.714;0.1755
R12;REM;11863.1;11893.1;30.00;0.0006;0.0006;0.0009;0.0006;0.0006;0.0005;30.670;26.932;56.152;23.956;53.253;115.509;16.708;58.975;58.670;43.869;0.0458;0.2670
R22;REM;25891.0;25895.5;4.50;61.646;59.586;55.161;72.327;86.823;191.345;15.717;41.122;47.226;0.8545;35.629;25.864;0.5112;0.2975;0.5569;0.9079;0.8011;0.0000
R22;REM;25877.0;25881.7;4.70;0.1373;0.1373;0.1602;14.267;0.3281;146.561;13.733;72.861;55.695;34.103;46.158;19.150;31.433;0.3128;0.5722;0.2594;0.1755;0.0000
R22;REM;3511.1;3515.9;4.80;0.1755;0.2060;0.1984;0.0610;0.1831;107.803;0.5341;31.738;71.259;39.825;60.043;17.166;45.090;0.2289;0.1678;0.3204;82.932;0.0000
R22;REM;5545.0;5549.9;4.90;142.517;10.910;20.294;18.311;26.550;126.266;55.618;19.913;29.373;16.556;0.6180;0.8316;0.3510;0.6714;0.2670;11.444;0.2365;14.191
R22;REM;8317.0;8322.0;5.00;447.922;16.022;16.174;17.242;15.106;113.602;38.910;95.749;13.199;21.744;0.9079;24.643;0.2289;0.0916;0.4501;0.6638;0.1297;0.1526
R22;REM;8069.0;8074.4;5.40;2.299.042;33.035;16.174;17.700;18.997;38.986;41.580;41.733;23.193;22.049;26.398;120.621;0.8926;0.3128;0.6638;0.7706;0.3586;0.6866
R22;REM;8801.0;8806.4;5.40;0.3128;0.2670;0.2441;0.1907;0.1984;75.760;0.5341;24.033;82.855;0.4501;0.1755;34.485;25.864;0.8316;0.6866;25.940;0.3815;0.2441
R22;REM;25082.0;25087.4;5.40;30.670;27.771;29.221;30.060;33.569;38.452;23.041;98.495;71.945;34.943;19.150;0.7858;21.667;0.6027;0.6714;24.796;0.3815;0.2441
R22;REM;20441.0;20446.6;5.60;16.708;16.785;0.8774;18.616;69.504;100.479;26.779;37.689;74.921;23.575;51.880;38.605;12.512;11.368;0.2670;0.2747;10.376;0.3281
R22;REM;12997.0;13002.6;5.60;0.0381;0.0381;0.0381;0.2289;0.0458;0.0916;14.572;65.308;61.874;81.329;15.030;133.057;0.7782;0.7706;11.444;0.5722;359.039;181.122
R22;REM;20136.0;20141.7;5.70;54.626;49.286;48.294;47.073;52.414;55.084;0.7477;56.076;34.409;0.6409;0.5646;0.5264;0.7019;0.7172;0.8850;27.618;11.063;0.9842
R22;REM;21480.0;21485.7;5.70;509.338;14.267;0.7095;0.8545;0.7095;12.360;25.787;26.627;30.136;33.035;21.896;10.605;0.2975;0.3357;0.6104;10.605;18.158;12.283
R22;REM;9792.1;9797.9;5.80;0.0687;0.0534;0.6866;0.0305;0.0305;0.0458;0.5264;59.967;95.367;27.237;33.264;38.757;19.226;0.1297;0.0763;14.420;26.550;0.6943
R22;REM;17243.0;17248.8;5.80;26.703;15.259;11.902;0.9232;11.978;22.202;30.594;74.539;105.438;0.7019;10.147;17.090;17.853;0.9689;0.7629;26.093;25.558;0.5417
R22;REM;2456.1;2461.9;5.80;0.2136;0.1984;0.0534;0.0916;0.0610;0.0305;10.452;117.569;100.174;63.019;30.670;0.8469;23.956;0.1907;0.8698;0.1450;18.921;19.455
R22;REM;4808.0;4814.0;6.00;0.0687;0.0763;0.0534;0.0687;0.4349;0.3052;0.9079;125.198;256.805;0.8240;15.030;13.733;29.449;0.3815;0.1755;30.441;57.297;0.3738
R22;REM;8186.0;8192.0;6.00;0.1144;0.0763;0.1984;0.1068;11.520;35.858;19.073;79.346;56.458;81.711;22.202;0.4578;43.259;0.6943;0.4044;0.3967;0.4044;11.139
R22;REM;9327.0;9333.0;6.00;0.0992;0.0916;0.0763;26.779;0.3586;0.8621;37.155;26.703;70.496;249.786;146.027;129.166;11.368;0.2289;0.2899;0.2518;0.8163;0.4654
R22;REM;18339.0;18345.0;6.00;0.5722;0.1678;0.3052;0.0534;0.0305;0.0916;13.657;75.684;315.094;185.699;113.144;27.313;0.4654;0.7782;0.6027;0.2365;41.504;11.978
R22;REM;5416.0;5422.1;6.10;77.667;0.1907;11.902;11.902;0.0687;0.0687;137.177;28.076;362.244;87.128;0.7477;41.504;0.2136;0.6256;0.1602;0.1221;155.945;24.185
R22;REM;12846.0;12852.1;6.10;43.106;40.894;52.567;49.744;50.201;58.823;19.836;102.463;65.384;28.076;36.011;68.283;15.030;0.2975;0.4272;0.9155;0.9995;0.2441
R22;REM;6662.1;6668.3;6.20;103.531;62.485;40.436;28.915;26.855;20.599;40.970;72.556;45.013;0.6943;16.403;14.801;13.046;0.6180;0.4044;35.324;0.6256;0.5722
R22;REM;7600.0;7606.2;6.20;0.0839;0.0610;0.0687;0.0458;0.0458;0.0763;28.687;22.659;35.172;0.3052;0.5264;49.515;0.3662;0.1144;0.1297;0.8469;0.9308;0.7706
R22;REM;17340.0;17346.6;6.60;124.435;33.875;0.3967;0.2213;0.2289;0.1526;30.823;51.880;100.403;12.589;56.686;12.589;0.2136;0.3586;0.1373;0.2518;88.120;161.514
R22;REM;3997.0;4003.6;6.60;0.1678;0.1450;0.1297;0.1221;47.073;20.676;28.915;40.741;75.378;14.343;0.5417;0.7706;37.842;0.3815;0.1373;0.9537;11.978;29.755
R22;REM;6384.1;6390.8;6.70;0.1602;0.1450;0.1450;0.1831;0.1144;0.1297;13.504;35.782;52.872;40.131;0.8392;15.030;52.109;0.9460;0.9689;30.441;0.7019;0.2594
R22;REM;29083.0;29089.7;6.70;0.0305;0.0381;0.0229;0.0229;0.0534;0.0458;0.9003;200.653;124.588;40.588;0.5112;16.479;14.496;0.3433;0.3128;0.3128;42.191;32.120
R22;REM;12977.1;12983.9;6.80;0.0305;0.0458;0.7248;0.2213;0.0305;0.1984;52.795;204.849;251.312;97.961;45.929;12.207;18.005;0.5951;0.2518;0.1221;32.806;47.150
R22;REM;21710.0;21716.8;6.80;201.416;22.278;15.869;0.7935;0.6332;0.4959;17.395;61.722;65.231;57.755;47.073;32.730;0.4120;0.2899;0.2899;0.4654;46.616;111.160
R22;REM;12658.0;12664.9;6.90;0.1144;0.1068;0.1068;0.1297;0.1068;0.3738;0.2670;126.266;124.741;72.556;31.433;36.774;40.665;0.7172;0.9460;0.3281;17.929;21.362
R22;REM;13915.1;13922.1;7.00;340.500;11.749;0.2747;0.5646;0.2441;19.455;0.9995;184.021;21.667;0.4807;44.937;0.9766;0.7935;0.5569;0.3815;26.627;1.446.991;159.302
R22;REM;27670.0;27677.0;7.00;0.3891;0.2823;0.2213;0.5417;24.414;0.2670;10.605;50.583;264.587;94.070;99.335;27.695;0.9155;0.2823;0.1526;0.2823;17.242;38.376
R22;REM;27806.0;27813.1;7.10;31.433;0.9995;0.1450;0.5112;0.0610;0.0610;30.136;71.182;116.043;52.567;95.749;30.441;29.068;0.5493;0.1221;0.0992;0.3510;0.5722
R22;REM;3150.1;3157.2;7.10;0.3433;0.3052;0.7019;17.319;0.2747;0.3052;32.043;165.253;72.479;44.556;16.022;15.793;64.926;0.3815;0.5493;0.4501;0.2899;0.2594
R22;REM;6766.0;6773.1;7.10;0.1297;0.6790;18.616;0.1526;0.6104;0.4425;10.834;98.114;242.844;238.495;126.419;136.948;34.027;0.6714;0.2136;0.2213;400.543;339.508
R22;REM;12273.0;12280.1;7.10;38.300;12.741;0.5875;0.5798;0.3357;0.0839;40.283;34.561;37.155;51.117;34.027;48.141;0.2747;0.4578;0.1984;0.2213;17.853;0.5112
R22;REM;2384.0;2391.2;7.20;0.0534;11.063;0.2365;0.0992;0.1755;0.0458;28.152;53.940;68.207;280.457;56.076;252.762;17.700;0.7629;0.6409;0.1984;0.0992;0.7172
R22;REM;26467.0;26474.2;7.20;22.964;17.853;0.2136;0.1907;10.986;0.3815;13.046;57.297;130.463;39.368;36.011;0.5722;20.523;0.9003;0.6180;0.4272;21.820;21.896
R22;REM;27367.0;27374.2;7.20;0.2213;0.1373;0.0763;0.0763;0.0687;0.0610;10.834;121.384;38.223;19.150;16.251;27.695;10.223;0.1755;0.0763;0.3204;35.248;27.618
R22;REM;7464.1;7471.4;7.30;0.0610;0.1907;0.0687;0.1602;0.0916;0.0610;36.316;26.779;51.804;127.411;125.656;116.119;0.2899;14.038;0.5951;0.2136;19.226;15.335
R22;REM;26115.0;26122.3;7.30;0.1450;0.0839;0.1755;0.2213;0.0687;0.1450;39.978;138.245;36.621;49.973;210.190;99.945;17.014;0.3662;0.3967;0.7477;16.327;0.3204
R22;REM;3003.0;3010.3;7.30;0.2747;0.2670;0.4272;0.5493;0.3738;0.3967;0.4272;91.095;325.546;23.804;0.6104;21.286;33.646;0.5569;0.0534;0.6714;201.950;127.945
R22;REM;12017.0;12024.4;7.40;0.2289;0.1755;0.1450;0.1831;0.1602;0.1373;25.101;122.833;37.384;48.904;0.4883;0.6943;48.523;0.2289;0.5722;0.4501;34.790;52.261
R22;REM;18470.0;18477.4;7.40;0.0381;0.0229;0.0305;0.2136;27.847;0.0916;0.4425;97.275;48.141;42.648;63.171;237.808;0.2136;0.1068;0.1907;0.5264;22.888;17.700
R22;REM;20419.0;20426.5;7.50;0.0534;0.0687;0.2518;0.1068;0.0610;24.109;59.204;520.554;302.734;242.386;414.963;192.871;30.746;0.2441;0.1602;0.5722;0.3891;0.2136
R22;REM;22118.0;22125.5;7.50;0.0229;0.0153;0.0153;0.0458;0.0381;0.5264;0.6714;98.114;37.460;0.5341;23.041;43.793;12.054;0.4730;0.4425;27.008;105.820;179.596
R22;REM;26320.1;26327.6;7.50;0.1526;0.1068;0.0992;0.9537;0.1297;0.6638;15.869;40.359;50.964;63.629;69.275;12.970;0.4501;0.3052;0.2518;0.6256;121.460;49.667
R22;REM;21233.0;21240.6;7.60;86.899;62.637;47.607;38.681;34.790;13.580;0.6409;28.534;64.240;0.9689;0.8163;10.147;47.455;0.3738;0.4578;26.245;187.225;196.152
R22;REM;6124.1;6131.7;7.60;0.2136;0.1221;0.1373;0.1297;0.1755;0.1755;71.945;188.904;258.102;166.626;116.272;69.809;26.245;0.3281;0.2899;0.1755;0.1373;0.1678
R22;REM;6831.0;6838.6;7.60;0.2670;0.1297;0.1297;0.0839;0.3586;0.1297;19.608;170.364;36.163;44.022;28.229;11.749;30.670;0.0839;0.1984;0.1678;0.1373;0.1678
R22;REM;22899.1;22906.7;7.60;305.786;16.785;59.128;0.0992;11.749;0.9155;64.316;293.427;227.432;55.618;50.735;13.428;0.3586;0.4501;12.207;0.2518;90.179;37.003
R22;REM;26051.0;26058.7;7.70;0.6256;0.4883;0.2060;0.0763;0.0992;0.0610;16.403;53.482;102.921;154.190;126.801;10.376;28.229;0.7629;0.3433;0.2594;0.4654;0.3510
R22;REM;9111.1;9119.0;7.90;268.707;13.046;0.5035;0.2747;0.2747;0.8240;40.207;57.068;33.646;0.3967;0.7248;0.7477;36.011;0.8926;0.2060;0.6027;0.1602;0.1221
R22;REM;25570.1;25578.0;7.90;0.3281;0.5417;0.3204;0.3128;0.2441;0.2060;31.357;24.948;59.814;77.515;10.147;43.945;0.4425;0.7629;0.5035;0.1526;400.925;120.316
R22;REM;27614.0;27622.0;8.00;0.6332;0.2594;0.1984;0.1373;0.1297;0.1297;17.166;89.722;53.177;34.485;26.474;0.8774;27.542;0.2670;0.3662;0.2747;0.7706;0.4501
R22;REM;19798.0;19806.1;8.10;0.0458;0.0458;0.0610;0.3967;0.0458;0.0458;15.564;167.160;130.005;60.425;83.847;192.490;46.463;0.2365;0.1373;0.3281;34.332;35.400
R22;REM;18504.0;18512.2;8.20;0.0381;0.0381;0.0763;0.0305;0.0610;0.0534;14.877;185.776;142.365;24.185;76.523;321.045;42.648;0.2213;0.1526;0.5646;0.8469;12.970
R22;REM;12903.1;12911.4;8.30;0.1068;0.0305;0.0305;0.0687;0.0305;0.0305;14.343;74.997;363.770;29.373;0.5722;23.575;0.3586;0.3891;0.3967;0.4120;0.2289;0.1526
R22;REM;7722.0;7730.4;8.40;0.1678;0.2441;0.0229;0.0687;0.0534;0.3510;0.4425;88.577;58.136;13.351;38.071;87.051;0.8926;0.3281;0.1068;0.9995;22.888;19.531
R22;REM;18759.0;18767.4;8.40;0.3510;0.2975;0.6485;0.3891;15.869;0.7172;10.605;223.999;167.084;170.898;234.680;55.237;0.7248;0.4044;0.2289;0.2747;189.590;107.346
R22;REM;5757.0;5765.5;8.50;0.1221;0.0992;0.0763;0.0534;0.0763;0.0763;0.5646;145.874;463.409;413.742;18.387;36.926;19.836;0.4959;0.0610;0.1068;0.8163;0.2213
R22;REM;6501.1;6509.6;8.50;0.2747;37.231;192.490;0.7706;0.7095;0.7477;37.689;116.959;41.199;10.605;25.864;33.646;0.4196;0.2060;0.5188;13.809;0.0610;0.0763
R22;REM;17548.0;17556.5;8.50;52.414;34.027;0.3052;0.0458;0.0687;0.0534;10.452;36.163;38.910;198.898;610.352;123.901;13.657;0.4730;0.4425;0.1831;31.967;67.139
R22;REM;18669.0;18677.5;8.50;0.2670;0.2594;0.1068;0.0458;0.1831;0.1831;12.207;78.735;83.923;94.833;296.326;99.487;0.6714;0.4272;0.5264;0.3967;0.2136;0.1450
R22;REM;19151.0;19159.5;8.50;133.057;37.384;34.866;41.580;36.469;43.488;24.490;23.575;46.692;39.291;0.9766;0.3586;0.5035;0.3891;0.7935;0.6790;19.226;25.787
R22;REM;27406.0;27414.6;8.60;0.7935;0.3738;0.1755;0.5417;0.1221;0.0916;18.616;198.364;179.977;168.915;210.724;103.531;15.717;0.3357;0.1450;0.1450;0.8163;0.7629
R22;REM;28722.0;28730.6;8.60;28.763;17.700;0.1831;0.0763;0.0534;0.0305;40.817;70.114;80.948;37.003;88.806;64.850;30.136;0.1526;0.2594;0.2060;0.1755;0.3891
R22;REM;8051.0;8059.6;8.60;0.1831;0.0687;0.0458;0.0458;0.0458;0.0687;24.109;98.038;145.035;76.141;205.383;112.228;28.763;0.2975;0.2136;0.4807;0.1526;0.3891
R22;REM;3331.0;3339.7;8.70;0.0916;0.2060;0.2060;0.0610;0.0305;0.0305;0.6714;404.205;451.660;469.131;197.296;285.721;16.098;0.1221;0.1678;0.1144;21.439;22.202
R22;REM;10479.0;10487.7;8.70;55.466;48.523;21.896;0.4883;0.4654;0.2365;17.090;42.572;77.667;270.233;124.283;187.912;11.673;13.580;0.6638;0.1450;0.3204;23.346
R22;REM;28363.0;28371.7;8.70;13.733;15.182;15.030;12.131;10.986;0.8850;0.8163;33.951;123.062;170.822;47.836;190.506;111.771;0.8926;0.2441;0.1602;0.3510;20.752
R22;REM;8299.0;8307.8;8.80;0.1297;0.4883;0.0992;0.7553;0.3586;0.0610;22.964;49.820;64.926;0.9232;77.438;785.675;33.493;0.8545;0.6866;33.340;0.1755;0.1450
R22;REM;9092.0;9100.8;8.80;125.809;18.845;12.894;0.5341;0.1144;0.0916;52.490;47.226;32.501;34.103;32.120;15.182;0.3128;0.0839;0.4044;0.1526;0.1907;0.1755
R22;REM;9507.0;9515.8;8.80;0.0305;0.0305;0.0305;0.0839;0.3967;0.0305;15.793;22.964;86.517;64.926;34.332;11.139;0.7401;0.5875;0.2518;0.5035;0.1907;0.1984
R22;REM;22663.0;22671.8;8.80;51.193;51.880;47.302;44.327;41.733;43.564;24.567;37.689;24.719;0.2518;0.5188;16.098;0.4044;0.5417;0.3433;34.409;11.902;40.588
R22;REM;12698.0;12706.9;8.90;0.0992;0.0992;0.0916;0.0839;0.0839;0.0763;39.139;115.433;65.613;39.825;0.7553;41.122;16.022;0.3738;0.2518;0.1678;10.681;11.749
R22;REM;17178.0;17186.9;8.90;0.2594;0.3204;0.1907;0.6104;0.0839;0.0610;14.648;84.305;221.939;301.743;383.911;68.436;0.5112;0.1526;0.0763;0.0610;0.2823;0.9766
R22;REM;7311.0;7320.0;9.00;0.0916;0.1221;0.0610;0.1602;0.0839;0.0534;22.964;37.766;108.414;204.010;234.070;143.738;22.125;0.5493;0.1602;0.1984;0.0687;0.0458
R22;REM;10358.0;10367.0;9.00;44.022;23.956;0.4807;0.1602;0.1755;0.2289;10.300;47.836;65.918;20.294;27.542;13.657;11.902;0.4807;0.2518;0.6027;10.376;0.4272
R22;REM;28114.0;28123.0;9.00;0.0916;0.0534;0.0534;0.0687;0.0687;0.0687;15.640;335.770;204.849;30.899;120.773;67.520;13.733;0.4578;0.2289;0.5035;93.613;173.569
R22;REM;18877.0;18886.1;9.10;67.368;0.4425;0.0916;0.1068;0.0916;0.1984;38.300;22.278;70.496;11.368;55.389;31.738;0.2899;0.2594;0.5264;20.828;115.356;156.097
R22;REM;27709.0;27718.1;9.10;33.798;21.133;21.591;11.139;0.5341;0.2899;25.101;102.997;84.229;17.624;51.880;26.093;18.616;0.4959;0.7248;0.8774;12.512;0.5951
R22;REM;28444.0;28453.1;9.10;0.5493;0.6256;0.4196;10.834;23.575;0.0763;14.801;20.828;106.201;130.997;35.019;230.713;20.905;0.8392;0.1755;0.3662;216.827;81.940
R22;REM;5671.0;5680.1;9.10;22.507;14.267;10.452;0.4578;0.1755;27.084;17.548;43.259;44.250;153.046;73.929;15.182;0.9384;12.131;0.7858;0.0839;0.1373;0.1755
R22;REM;3714.0;3723.2;9.20;0.6561;0.5188;0.2365;0.3204;0.1221;0.2289;22.049;26.855;83.008;109.100;0.9995;15.106;64.392;0.7172;0.4730;0.3128;88.654;13.428
R22;REM;22637.0;22646.2;9.20;0.7172;0.1984;0.0839;0.0687;0.0305;0.0305;55.542;35.934;64.545;83.542;44.708;157.471;0.7477;0.2289;0.0610;0.1526;0.5264;0.1068
R22;REM;25810.0;25819.2;9.20;0.0916;0.0839;0.1144;0.0763;0.0916;0.0458;0.9537;28.610;87.814;61.340;249.863;238.037;18.005;0.9689;0.4272;0.1602;14.343;72.403
R22;REM;8935.0;8944.3;9.30;65.536;68.665;57.907;30.136;0.2899;0.1678;37.308;120.773;60.806;13.123;23.117;286.789;10.529;0.1297;0.2289;13.123;0.1450;0.2289
R22;REM;12819.0;12828.3;9.30;45.242;18.616;0.1068;0.0610;0.0534;0.0381;11.215;72.708;33.340;106.506;187.302;92.773;11.063;0.2899;0.2365;0.1526;0.8011;0.1526
R22;REM;2106.0;2115.5;9.50;25.482;10.300;0.6866;0.8774;0.6638;10.681;0.9842;43.488;234.070;33.722;17.853;14.572;12.207;0.3128;0.2060;0.6561;0.3738;0.3967
R22;REM;5853.1;5862.6;9.50;0.1221;0.0916;0.0916;0.0687;0.0610;0.1144;12.970;21.820;47.989;242.767;180.359;87.967;10.681;0.1831;0.4044;0.2747;0.1373;0.2747
R22;REM;6939.0;6948.5;9.50;95.444;17.853;0.1450;0.0839;0.0381;0.0305;51.651;132.980;88.806;37.918;244.217;69.580;0.7248;0.0916;0.1221;0.4196;19.913;0.4425
R22;REM;4376.1;4385.7;9.60;0.0534;0.0763;0.3510;0.5188;0.9766;0.7935;14.191;174.866;93.613;41.046;0.8316;15.411;74.921;0.7858;0.4272;0.9308;19.150;52.414
R22;REM;2533.0;2542.6;9.60;0.3052;0.3662;0.0992;0.0381;0.0305;0.0305;0.3586;118.866;341.949;107.269;0.9384;81.940;30.441;0.6790;0.1907;0.2823;0.5188;0.1755
R22;REM;13704.0;13713.8;9.80;0.1221;0.0992;0.0916;0.0992;0.0458;0.0305;0.8926;30.670;28.381;20.676;13.962;86.594;12.665;0.4501;0.1831;0.3281;12.512;20.370
R22;REM;22881.0;22890.8;9.80;0.1373;0.1602;0.1297;0.0916;0.5875;12.817;35.324;37.003;25.330;0.3510;14.420;51.422;23.499;10.605;0.8163;34.180;0.3967;0.1373
R22;REM;23127.0;23136.8;9.80;76.447;18.616;12.894;16.022;0.0458;0.1373;61.111;58.746;136.871;182.800;511.322;547.485;0.7095;0.2823;0.1678;0.2518;16.632;17.776
R22;REM;2625.1;2634.9;9.80;0.2213;0.1144;0.0305;0.1526;0.0305;0.0305;10.605;99.945;46.844;132.294;0.7095;0.4883;21.896;0.2136;0.1602;0.2136;0.1526;0.4120
R22;REM;5619.0;5628.9;9.90;0.1144;0.1068;0.6332;0.0839;0.1678;0.4196;11.368;67.673;62.027;96.054;100.021;118.484;12.360;0.3815;0.3204;0.2441;0.1526;0.4120
R22;REM;12674.0;12683.9;9.90;0.1068;0.0763;0.0458;0.2975;0.1297;0.0687;0.9079;154.495;99.182;187.073;207.748;217.667;0.6638;0.6104;0.6561;0.2670;14.267;19.531
R22;REM;19973.0;19982.9;9.90;0.3738;0.1068;0.1068;0.1221;0.0687;0.0458;29.373;60.959;23.727;33.112;192.490;89.111;31.815;0.7324;0.7706;0.3510;0.1678;0.0916
R22;REM;3408.1;3418.1;10.00;0.0458;0.0610;0.0305;0.0534;0.1526;0.6485;25.635;19.913;96.512;156.021;67.520;77.133;0.6104;0.2899;0.6561;0.2975;0.5493;11.749
R22;REM;10691.0;10701.0;10.00;0.9003;0.5798;0.2213;0.7858;10.300;0.6638;0.9003;31.433;33.493;16.327;26.398;103.683;15.106;0.5646;0.1678;0.1678;13.504;12.131
R22;REM;13496.0;13506.0;10.00;0.1144;0.2747;21.591;0.3128;0.0687;0.4349;67.749;356.674;133.133;129.242;107.803;352.707;13.275;0.4959;0.2060;0.6180;0.8163;0.2899
R22;REM;13560.1;13570.1;10.00;34.180;23.193;0.8774;0.4807;0.5341;0.3128;0.6256;33.722;28.458;0.4807;28.839;53.711;32.578;0.6180;0.8316;64.468;39.444;16.098
R22;REM;21172.0;21182.0;10.00;54.779;57.678;61.646;80.185;24.719;11.444;0.2899;71.869;46.844;45.471;59.280;47.760;11.978;0.4578;0.2594;0.0916;0.2213;0.1144
R22;REM;20485.0;20495.1;10.10;62.256;28.610;0.4501;0.3738;0.2670;0.2060;19.913;384.445;1.176.224;1.005.402;253.296;79.346;29.144;0.1755;0.1221;0.1144;23.499;0.5035
R22;REM;22170.0;22180.1;10.10;12.589;0.8850;0.6485;0.2060;0.2060;0.2213;39.902;72.174;84.381;47.073;24.414;63.400;17.014;12.665;0.2213;0.0534;0.3204;0.3433
R22;REM;29119.0;29129.1;10.10;0.3967;0.2518;0.0763;0.0534;0.0916;0.0381;13.351;98.724;95.367;39.749;243.607;83.542;0.7706;0.2213;0.1831;0.6180;0.1373;0.3281
R22;REM;5648.0;5658.1;10.10;17.471;0.6256;0.1297;0.0992;0.3204;0.1068;35.019;122.528;147.095;84.686;56.076;177.689;16.632;0.2594;0.1221;0.2213;15.182;27.542
R22;REM;8995.0;9005.1;10.10;18.921;18.539;10.681;0.2289;0.1755;0.1678;16.251;39.215;151.291;78.735;16.098;79.346;0.6332;0.5493;0.1221;0.0687;16.479;14.267
R22;REM;12291.0;12301.3;10.30;48.676;34.027;23.193;18.158;29.068;0.2365;18.311;28.915;113.602;33.569;186.996;86.441;17.700;0.5951;0.3891;0.5798;0.2213;0.3128
R22;REM;12763.1;12773.5;10.40;12.207;11.292;0.9537;0.2136;0.0992;0.0916;23.575;73.547;53.635;34.409;28.229;188.217;0.9613;12.665;0.5798;0.5341;10.071;0.7095
R22;REM;20198.0;20208.4;10.40;0.1678;0.1144;0.0687;0.0458;0.0610;0.0839;13.657;103.912;106.964;125.122;274.811;55.008;19.913;0.1602;0.1373;0.2136;0.6943;0.4044
R22;REM;28782.0;28792.4;10.40;0.0458;0.0534;0.0381;0.0381;0.0610;0.0763;14.648;37.155;278.397;503.998;555.038;61.798;45.166;0.3738;0.1068;0.0839;25.024;22.507
R22;REM;28948.0;28958.4;10.40;0.0305;0.0305;0.0229;0.0305;0.0458;0.0763;15.182;37.918;59.204;101.089;26.855;193.100;0.5035;0.5722;0.4959;0.2899;0.1373;0.2289
R22;REM;5523.0;5533.5;10.50;0.1831;0.2823;0.0763;0.0229;0.0305;0.0458;0.8621;174.179;464.172;44.785;79.803;66.071;43.030;0.2823;0.1221;0.8087;22.964;0.8392
R22;REM;10453.0;10463.5;10.50;0.0610;0.0381;0.0458;0.1144;0.0458;0.0458;10.376;40.588;28.763;78.964;67.673;103.760;11.368;0.0839;0.2136;0.2594;0.2289;0.4196
R22;REM;13824.0;13834.5;10.50;0.9766;0.5646;0.1602;0.1144;0.1526;0.1068;0.5188;57.678;83.084;13.580;11.063;16.022;28.610;0.2594;0.5722;26.321;17.548;25.101
R22;REM;20614.0;20624.5;10.50;94.986;26.169;18.921;10.452;22.125;18.921;27.466;36.240;88.806;38.071;75.226;213.013;0.2518;0.2518;0.1755;0.1221;0.4578;0.2975
R22;REM;20579.0;20589.6;10.60;0.7095;0.7706;0.1526;0.1144;42.114;0.3128;38.452;62.027;25.101;36.469;233.841;478.058;0.2060;0.2441;0.3357;0.2365;0.9613;0.3510
R22;REM;3616.0;3626.6;10.60;0.3510;0.2670;0.2060;0.0916;0.0458;0.0992;14.801;22.507;63.934;35.019;145.493;59.814;62.103;0.7477;0.6409;0.8240;30.212;0.6561
R22;REM;7076.0;7086.6;10.60;0.3891;0.0687;0.0305;0.0305;0.0381;17.471;10.681;49.057;112.152;49.820;209.274;662.766;33.188;0.7401;0.5569;0.4349;0.0839;0.0992
R22;REM;10548.0;10558.8;10.80;0.0839;0.0610;0.0610;0.0381;0.0534;0.0458;18.234;44.174;14.114;150.757;176.315;95.139;0.5875;0.3815;0.3586;0.0687;0.7401;15.030
R22;REM;28530.0;28540.8;10.80;0.1526;0.1526;0.1984;0.1297;0.1755;0.2747;0.8698;61.111;50.659;48.599;104.370;170.059;10.986;0.0916;0.0687;0.1831;48.599;17.166
R22;REM;17666.1;17676.9;10.80;0.1297;0.1373;0.0992;0.0381;0.0458;0.0458;10.986;135.040;178.986;34.790;0.9689;0.5112;15.945;0.2518;0.4272;0.2060;61.646;11.292
R22;REM;12130.0;12140.9;10.90;15.030;10.834;0.2518;0.1450;0.1755;0.0763;40.817;59.433;98.572;86.288;23.804;16.403;0.7019;12.207;0.1450;0.1831;14.114;13.351
R22;REM;27854.0;27864.9;10.90;0.1678;0.1221;0.0839;19.302;0.0610;0.0610;0.9308;77.972;126.114;73.700;167.847;183.029;23.041;0.2441;0.2060;0.4120;0.8774;0.5112
R22;REM;21828.0;21839.1;11.10;0.4349;0.2518;0.1221;0.0839;0.0458;0.0534;12.436;36.774;53.024;37.155;177.994;175.858;0.7324;0.4501;0.1755;0.6790;0.1373;0.3891
R22;REM;22599.0;22610.1;11.10;0.0305;0.0305;0.0305;0.0458;0.4044;15.488;0.8621;27.695;86.823;118.866;374.146;1.573.792;31.204;0.2823;0.2518;0.2670;16.785;11.139
R22;REM;24893.0;24904.1;11.10;0.1373;0.1297;0.1907;0.1450;0.1068;0.0763;0.9537;35.248;112.534;125.885;36.469;22.583;0.8545;0.3891;0.1907;0.2365;69.046;14.114
R22;REM;25178.0;25189.1;11.10;103.683;25.787;0.1221;0.2289;0.2289;0.1678;89.188;92.239;39.825;37.003;119.629;155.182;0.2747;0.1068;0.1907;0.7324;43.716;36.392
R22;REM;28618.0;28629.1;11.10;0.0305;0.0229;0.0305;0.0305;0.0305;0.0534;12.970;33.951;26.245;37.155;138.245;52.338;0.8698;0.3586;0.2823;0.1678;0.4196;0.0839
R22;REM;10326.0;10337.1;11.10;0.0610;0.0381;0.0381;0.0458;0.0381;0.0458;18.845;29.297;161.972;93.002;90.027;84.000;0.1984;0.3967;0.2289;0.1907;10.681;14.572
R22;REM;12072.0;12083.1;11.10;0.2213;0.1755;0.1068;0.0687;0.1068;0.0687;0.4959;63.324;110.626;32.883;34.409;27.313;83.008;0.3052;0.2594;0.1526;17.014;29.755
R22;REM;12100.0;12111.1;11.10;0.9613;0.1755;0.0610;0.0305;0.0381;0.0916;14.420;54.016;299.301;567.017;367.889;261.002;0.4196;0.1221;0.1221;0.1297;44.479;57.144
R22;REM;19122.0;19133.2;11.20;0.0763;0.0916;0.0916;0.0839;0.0839;12.894;0.9460;180.283;72.937;139.236;478.363;835.571;12.360;0.0458;0.3281;0.4349;0.1450;0.1373
R22;REM;28480.1;28491.3;11.20;15.182;0.2594;0.2365;0.0916;0.0305;0.0534;53.558;196.457;193.710;131.454;104.904;157.928;18.311;0.4272;0.0763;0.0992;13.580;0.1373
R22;REM;8842.1;8853.4;11.30;0.9537;0.6485;0.2747;0.2365;0.7858;0.9995;38.986;45.013;25.406;62.027;383.072;130.920;18.997;0.9003;13.504;0.5341;32.578;17.319
R22;REM;20687.0;20698.3;11.30;36.316;27.924;14.801;0.5264;24.643;0.3510;16.098;50.888;46.310;86.136;60.883;27.313;0.6638;0.6561;0.5035;0.1678;56.610;13.199
R22;REM;23369.0;23380.3;11.30;36.850;35.248;21.744;15.030;0.9003;0.2747;15.259;124.969;263.901;135.574;131.531;107.193;0.7095;0.1907;0.0916;0.1602;144.196;151.520
R22;REM;7544.1;7555.5;11.40;0.0534;0.1068;0.0381;0.0305;0.2136;0.0992;20.905;57.373;61.951;65.765;163.879;605.164;11.292;0.4501;0.3891;0.3586;56.915;37.460
R22;REM;13522.0;13533.5;11.50;0.9232;0.8698;0.8621;0.9460;0.6104;0.1297;46.387;56.305;62.332;25.940;31.586;16.556;24.109;0.8621;0.8240;26.245;0.5798;0.2518
R22;REM;22388.0;22399.5;11.50;29.068;0.6561;0.4501;0.3891;0.3815;0.1450;22.812;25.940;78.659;14.648;10.605;31.662;0.9079;0.4730;0.4578;10.529;0.1373;0.1678
R22;REM;21304.0;21315.6;11.60;0.0305;0.0305;0.0305;0.0381;0.0381;0.0305;12.817;27.237;106.506;111.847;36.926;80.261;0.4654;0.3662;0.3433;0.1984;0.6790;23.880
R22;REM;19366.1;19377.7;11.60;0.1450;0.1144;0.1068;0.1068;0.1144;0.1221;32.349;55.084;66.681;75.684;42.572;60.959;30.594;10.681;0.4349;0.7248;0.3357;0.1984
R22;REM;10506.0;10517.7;11.70;56.992;28.992;0.4196;0.1450;0.1450;0.0763;36.545;52.795;56.992;57.526;29.373;18.539;26.550;0.3052;0.3281;0.1984;16.251;21.133
R22;REM;18857.0;18868.8;11.80;0.0381;0.0610;0.0381;0.1602;0.0610;0.1373;0.7553;58.060;62.561;116.043;28.763;93.613;0.9842;0.2670;0.1602;0.0839;31.586;30.594
R22;REM;21403.0;21414.8;11.80;0.8545;0.4425;0.4120;0.3815;0.1831;0.1755;97.275;47.531;46.234;87.433;26.550;52.643;11.215;0.8392;0.8926;0.4272;188.675;106.659
R22;REM;10073.0;10084.9;11.90;0.0916;0.1907;0.0687;0.0992;0.0534;0.0687;0.6180;103.378;105.362;15.106;17.166;90.637;18.921;0.1602;0.1907;12.131;0.2594;0.0992
R22;REM;17859.0;17870.9;11.90;67.139;30.899;0.4044;0.0458;0.0305;0.0381;17.700;43.869;239.563;281.067;289.230;15.793;48.141;0.6790;0.4883;0.1450;35.172;0.1907
R22;REM;23335.0;23346.9;11.90;11.597;10.147;13.351;10.834;0.1144;0.0534;0.9079;46.158;173.264;108.261;246.277;98.801;0.7706;0.1755;0.2899;0.3204;40.970;17.166
R22;REM;8964.0;8976.0;12.00;71.487;23.804;0.3586;0.0839;0.0381;0.0381;76.981;203.400;95.673;172.729;84.229;208.130;21.057;0.1221;0.1144;0.0916;0.2365;0.1602
R22;REM;10275.0;10287.0;12.00;12.207;10.300;0.2365;0.0687;0.1450;0.0305;0.9308;77.744;99.487;142.212;30.594;36.774;18.234;0.1373;0.1450;0.1602;0.1450;0.2136
R22;REM;9600.2;9612.3;12.10;0.2213;0.2213;0.1984;0.0992;0.1450;0.0763;24.796;36.011;41.199;61.874;60.654;155.869;22.049;0.5951;0.5951;0.1831;27.771;0.9689
R22;REM;21778.1;21790.2;12.10;0.0458;0.0458;0.0458;0.0610;0.0534;0.0381;28.839;48.294;17.853;233.383;33.417;77.286;0.4883;0.3052;0.2213;0.0458;0.7248;16.556
R22;REM;17287.1;17299.4;12.30;51.346;17.242;44.556;0.3815;0.0687;0.2136;24.033;56.229;38.147;207.443;163.727;54.626;16.174;0.4425;0.8774;0.2441;0.1602;0.2365
R22;REM;8906.0;8918.4;12.40;93.002;0.6714;0.8087;0.4349;0.5035;0.1450;22.278;15.869;42.191;74.081;10.529;10.376;21.973;15.335;0.6790;0.1373;0.3738;0.5951
R22;REM;17723.1;17735.5;12.40;0.1373;0.0458;0.0305;0.0305;0.0305;0.0381;10.147;65.079;79.498;31.204;14.877;98.648;0.2670;0.3204;0.4196;0.8087;0.7782;0.3204
R22;REM;28203.0;28215.4;12.40;0.0916;0.0916;0.0916;0.0916;0.1144;0.0610;0.4044;32.883;180.893;314.636;152.435;77.438;0.0839;0.1068;0.4349;0.1831;51.804;41.122
R22;REM;21862.0;21874.5;12.50;0.5569;0.5646;0.1907;0.1068;0.1068;0.1221;17.166;55.771;52.338;24.948;0.8011;37.155;14.420;0.4654;0.2365;0.6943;0.1144;0.3815
R22;REM;19895.0;19907.7;12.70;0.2289;0.2213;0.2060;0.1602;0.0839;0.0763;0.7706;24.261;64.392;14.954;0.6790;0.3967;10.376;0.7019;0.2289;0.8545;0.2670;0.1984
R22;REM;20458.0;20470.8;12.80;59.814;28.152;0.9918;0.1373;0.1297;0.1068;0.5341;70.190;33.798;66.757;154.190;119.629;0.5264;0.0763;0.2136;0.0839;0.0992;0.1831
R22;REM;20656.0;20668.8;12.80;28.687;10.834;0.7324;0.2747;0.1526;0.1373;60.959;70.267;31.433;30.289;18.387;20.981;12.589;11.520;0.8087;0.1907;0.4044;0.5188
R22;REM;20862.1;20874.9;12.80;0.0153;0.0153;0.0153;0.0610;0.0229;0.0381;0.9079;32.730;81.711;47.913;71.106;218.506;37.003;0.7324;0.1602;0.1602;0.1450;0.2670
R22;REM;12158.0;12170.9;12.90;99.182;29.602;0.3586;0.1450;0.0916;0.8621;13.657;75.531;688.705;563.278;80.872;51.117;0.7095;0.2747;0.1755;0.0839;34.332;34.103
R22;REM;4458.0;4471.0;13.00;0.0916;0.0916;0.0916;0.1068;0.1068;0.0992;27.924;83.771;61.340;42.725;70.267;23.651;27.924;0.4807;0.4578;0.7782;14.420;12.054
R22;REM;17801.0;17814.0;13.00;0.0839;0.0458;0.0610;0.6256;0.0305;0.1221;0.9766;264.664;109.329;89.874;419.693;1.184.616;20.981;0.2899;0.1144;0.5951;12.054;0.8926
R22;REM;22432.0;22445.3;13.30;0.0687;0.0305;0.0381;0.0229;0.0305;0.0381;11.139;50.735;31.281;24.338;51.270;26.550;16.327;0.2975;0.2975;0.3357;0.4196;23.956
R22;REM;28672.0;28685.3;13.30;0.1678;0.0610;18.539;0.2670;0.0992;0.1144;13.199;181.656;211.792;72.250;199.738;220.566;10.300;0.2289;0.1984;0.2747;0.1373;10.452
R22;REM;20006.0;20019.4;13.40;17.471;16.022;13.962;0.5112;0.1221;0.1221;93.002;116.730;57.297;25.558;83.847;21.973;16.708;0.4501;0.6409;0.1907;25.482;25.330
R22;REM;9054.0;9067.5;13.50;102.386;51.956;0.8698;0.0534;0.0305;0.0534;0.3433;57.068;57.907;47.455;93.536;90.332;10.681;0.3281;0.2060;0.1602;0.3204;0.1373
R22;REM;10180.1;10193.6;13.50;57.297;40.665;19.455;0.5951;0.0839;0.0534;19.226;30.823;54.016;73.929;54.855;112.152;0.4959;0.2136;0.0305;0.1373;48.218;10.681
R22;REM;9027.0;9040.7;13.70;103.683;22.583;0.4196;0.0381;0.0229;0.0305;41.122;98.190;130.997;84.534;58.136;183.640;0.8011;0.1373;0.0992;0.1221;0.2289;0.3357
R22;REM;17519.1;17532.8;13.70;131.912;0.6638;0.2365;0.1831;0.0763;0.0381;74.997;162.811;130.539;97.580;109.940;290.146;0.1373;0.1450;0.1831;0.2213;0.3510;0.1068
R22;REM;25310.1;25323.9;13.80;28.381;0.8774;0.3510;0.4120;0.2594;0.2365;35.553;65.765;37.842;22.278;49.744;0.6409;17.319;0.2441;0.1221;0.4425;0.1450;0.4578
R22;REM;6908.1;6922.0;13.90;24.185;0.8698;0.5112;0.0381;0.2823;0.0381;11.978;95.215;215.530;320.435;308.685;373.688;0.2823;0.3281;0.3510;0.2136;13.580;29.984
R22;REM;17365.1;17379.0;13.90;49.438;24.643;0.3586;0.5798;0.1221;0.0763;0.1831;70.953;90.256;61.722;135.422;305.786;20.370;0.2518;0.0992;0.2136;16.937;0.7553
R22;REM;21005.1;21019.0;13.90;0.1450;0.1984;0.0458;40.665;0.0992;0.0305;31.891;144.577;258.484;66.376;120.239;200.653;43.182;0.5417;0.3433;0.5569;0.3967;0.2518
R22;REM;13654.0;13668.3;14.30;25.787;0.9842;0.5646;0.2060;0.8774;0.0610;0.9155;83.618;205.460;286.331;976.639;88.196;0.6180;0.1450;0.2136;0.1907;0.3967;0.0763
R22;REM;21087.0;21101.3;14.30;0.0305;0.0305;0.0305;0.0610;0.0381;0.0305;0.3815;46.463;133.438;149.689;645.447;841.904;26.016;0.5951;0.4120;0.2670;0.1755;0.3128
R22;REM;17600.0;17614.4;14.40;151.215;49.286;11.978;0.0839;0.0534;0.0381;31.204;27.542;42.725;10.986;23.880;35.324;0.2289;0.2518;0.1221;0.5341;0.1221;0.3357
R22;REM;21456.0;21470.4;14.40;23.880;15.411;0.4196;0.2823;0.1297;0.0534;17.090;54.932;45.776;13.657;11.978;44.937;29.373;0.8392;0.5569;41.046;0.5493;0.1755
R22;REM;20050.1;20064.6;14.50;0.0916;0.1831;0.0381;0.0839;0.0381;0.0458;0.4730;28.381;296.783;374.908;137.863;701.065;23.651;0.1450;0.0992;0.0916;0.2823;0.1907
R22;REM;10121.1;10135.9;14.80;0.1755;0.1678;0.4425;0.0534;0.2747;0.1907;27.390;38.757;88.272;157.318;260.391;111.084;15.793;0.3967;0.2823;0.0992;0.8316;19.989
R22;REM;20509.0;20523.8;14.80;26.321;17.014;0.7095;11.902;0.3357;0.5798;0.8240;37.308;70.496;74.310;76.065;84.991;18.539;0.7248;0.2518;0.2670;0.1831;0.5646
R22;REM;21352.0;21366.8;14.80;14.114;22.888;11.063;0.5417;0.2594;0.1678;44.937;35.934;64.774;49.515;11.444;0.2975;14.877;0.4730;0.2289;0.6943;18.692;45.624
R22;REM;22467.0;22481.9;14.90;0.1221;0.0458;0.0229;0.0153;0.0305;0.0458;12.970;60.577;30.823;31.433;131.149;11.826;0.5875;0.4349;0.6180;0.6027;0.1526;0.4654
R22;REM;21739.0;21754.2;15.20;26.245;14.954;13.809;29.221;11.978;0.6256;64.163;45.624;22.354;34.103;15.640;13.885;11.520;0.4501;0.8621;0.9003;0.2747;0.1526
R22;REM;20545.0;20560.3;15.30;156.326;60.577;0.5493;0.3586;13.428;0.1144;60.043;74.234;170.593;1.193.619;760.269;509.109;0.1144;0.2289;0.1755;0.0992;0.1755;0.2289
R22;REM;21684.0;21699.4;15.40;0.0916;0.0763;0.0992;0.7629;26.093;0.3586;40.436;53.711;247.269;138.245;42.343;471.802;29.602;0.5493;0.2975;0.1526;0.3128;0.3738
R22;REM;17483.0;17498.5;15.50;15.488;0.1221;0.0610;0.0687;0.8774;0.0687;0.9537;149.384;298.996;239.868;274.429;126.190;0.1221;0.1526;0.5722;0.2594;0.2594;0.1984
R22;REM;23253.0;23268.5;15.50;0.1221;0.0992;0.0687;0.3433;0.1602;0.1373;0.9003;53.406;76.675;103.683;334.396;173.264;34.561;0.2670;0.2975;0.3738;0.4578;0.0839
R22;REM;17568.0;17584.2;16.20;117.035;13.580;0.2899;0.1831;0.0839;0.0534;218.353;164.566;113.678;116.730;140.305;81.329;0.3510;0.1907;0.2213;0.3204;0.2136;0.2518
R22;REM;10214.0;10230.3;16.30;17.319;11.673;0.2747;0.0458;0.1144;0.0687;0.9003;74.997;84.839;170.135;110.779;694.275;0.2060;0.0916;0.0916;0.0992;0.1602;0.1373
R22;REM;12790.0;12806.3;16.30;0.1984;0.1602;0.1068;0.0458;0.0153;0.0305;108.948;116.119;62.561;68.741;97.885;40.817;25.787;0.2975;0.5493;0.1144;19.608;0.3281
R22;REM;12314.0;12330.6;16.60;97.275;20.752;15.259;11.673;0.4349;0.3052;42.191;218.506;47.455;108.566;227.661;40.894;0.3967;0.1144;0.4196;0.1602;0.7095;16.937
R22;REM;10145.1;10161.9;16.80;196.381;54.779;41.351;27.542;17.395;0.1297;11.597;88.654;96.512;543.747;90.866;253.830;0.8926;0.6561;0.6943;0.0916;0.2213;0.1831
R22;REM;17403.0;17419.9;16.90;0.4654;0.2136;0.1450;0.1602;0.1526;0.1450;17.700;83.923;59.662;67.520;44.022;32.654;0.2747;0.0763;0.1373;0.2289;0.4425;0.3815
R22;REM;12729.0;12746.5;17.50;0.3510;0.1221;0.0763;0.0458;0.3052;0.0381;31.738;51.346;197.296;228.043;265.427;340.424;13.428;0.9155;0.1526;0.4578;0.2289;0.1831
R22;REM;13608.0;13625.5;17.50;0.5798;0.1450;0.0916;0.0610;0.5264;0.8087;10.681;95.673;35.858;24.033;53.787;45.471;18.845;0.6485;0.9003;0.5569;21.515;0.9689
R22;REM;21129.0;21147.2;18.20;0.4196;0.2365;0.0687;0.0305;0.0381;0.0534;0.7095;29.449;152.588;483.780;220.032;277.405;0.9384;0.3433;0.1068;0.0534;0.5951;0.2060
R22;REM;20083.0;20101.7;18.70;88.043;56.305;32.272;15.640;0.1373;0.0763;0.7706;123.672;27.237;77.515;93.689;92.087;15.793;0.5798;0.2899;0.1450;0.4349;0.2136
R22;REM;22349.1;22368.2;19.10;0.2136;0.2060;0.5646;0.4883;15.182;0.6943;15.259;60.425;136.642;238.342;289.841;231.018;0.7477;0.4044;0.9384;0.1068;18.082;0.7172
R22;REM;13875.1;13894.5;19.40;11.063;11.520;0.9995;0.3052;0.1297;0.1144;54.626;83.466;76.904;0.5875;0.1450;0.2060;20.599;0.2213;0.2670;26.703;0.1297;0.3128
R22;REM;12186.0;12206.9;20.90;36.926;16.708;0.3128;0.1984;0.1831;0.2289;52.643;62.561;103.531;12.131;36.850;73.700;15.106;0.2289;0.0763;0.2670;20.981;18.539
R22;REM;10578.0;10600.3;22.30;74.997;38.834;0.5722;0.1831;0.1221;0.1144;0.6790;144.958;130.844;128.098;23.804;0.8621;19.913;0.2365;0.1297;0.0381;0.4349;0.3586
R23;REM;480.0;490.0;10.00;0.2747;0.2060;0.2213;0.1984;0.2136;0.2365;27.618;115.051;73.700;39.825;16.937;11.597;81.100;12.970;13.580;56.686;0.9384;44.022
R23;REM;1310.0;1320.0;10.00;0.1221;0.1068;0.1068;0.0916;0.0763;0.0610;0.7248;28.305;0.9995;15.488;102.768;83.084;66.681;14.038;12.589;0.7706;0.5035;0.0763
R23;REM;2840.0;2850.0;10.00;0.3052;0.3128;0.3128;0.3128;0.3204;0.2975;14.877;17.548;42.953;11.444;43.564;128.555;45.013;74.615;53.482;203.629;0.3662;0.2899
R23;REM;3250.0;3260.0;10.00;117.035;0.5112;0.5417;0.6027;0.5493;0.5493;0.6485;0.9232;10.834;21.439;22.736;19.989;10.529;11.978;15.182;32.883;0.9155;30.441
R23;REM;3430.0;3440.0;10.00;0.3967;0.4883;21.057;123.291;0.7019;0.4807;31.433;19.989;14.343;35.019;0.8698;33.493;15.030;0.1678;12.589;0.2975;21.591;0.9842
R23;REM;4480.0;4490.0;10.00;0.4272;0.4349;0.4044;0.5798;0.3433;0.2213;58.899;0.6943;51.346;107.727;34.485;19.760;89.340;33.798;17.548;0.3662;0.1907;0.0305
R23;REM;4570.0;4580.0;10.00;0.6332;0.5417;0.6027;0.6027;0.5722;0.4959;12.360;12.741;0.5722;40.741;12.207;31.891;24.719;40.054;85.602;29.602;0.7629;15.030
R23;REM;4830.0;4840.0;10.00;0.0839;0.0763;0.0763;0.0687;0.0763;0.0687;28.763;29.144;22.888;10.300;86.899;59.052;67.673;35.477;36.926;47.913;0.2975;0.1373
R23;REM;4930.0;4940.0;10.00;0.0534;0.0458;0.0458;0.0534;0.0610;0.0534;14.801;27.313;83.237;30.746;41.809;159.988;0.5569;0.5493;0.1984;0.4349;0.2975;0.1373
R23;REM;5700.0;5710.0;10.00;0.4196;0.3738;0.3433;0.2823;0.2747;0.1221;123.978;44.708;31.357;22.430;35.934;135.498;12.054;14.801;28.076;28.152;21.286;13.351
R23;REM;5820.0;5830.0;10.00;0.5341;0.4730;0.5188;0.4425;0.3891;0.1450;19.150;55.618;28.839;0.8240;27.466;67.139;39.749;27.313;26.474;28.839;0.9537;0.5493
R23;REM;5900.0;5910.0;10.00;48.370;14.954;0.9613;0.7172;0.7401;0.7172;0.8011;0.8240;17.090;32.272;69.351;23.804;0.5646;10.376;11.597;19.836;0.1907;0.1602
R23;REM;6000.0;6010.0;10.00;0.0534;0.0534;0.0458;0.0458;0.1221;0.0610;15.564;14.267;15.640;35.172;223.083;729.523;30.670;12.054;0.3357;18.158;24.490;26.932
R23;REM;6300.0;6310.0;10.00;0.8316;0.7324;0.6256;0.5417;0.1755;0.0839;39.139;0.8774;42.725;19.455;32.425;18.463;31.509;136.337;40.207;73.090;0.1907;0.1602
R23;REM;6460.0;6470.0;10.00;0.6485;0.6332;0.6180;0.4730;0.2899;0.2213;16.403;26.093;0.8545;30.136;88.196;49.820;28.839;55.542;28.076;52.948;0.1831;0.1602
R23;REM;6770.0;6780.0;10.00;97.427;167.389;348.587;0.6485;0.5112;0.5417;147.476;30.975;26.855;12.436;0.2594;18.234;0.1831;0.2747;0.5035;0.2670;0.2747;0.3510
R23;REM;7220.0;7230.0;10.00;0.0839;0.2823;0.5951;0.9995;0.4196;23.193;15.411;57.907;155.945;45.242;56.381;211.716;0.9460;28.458;0.5569;0.5493;0.5188;11.597
R23;REM;7260.0;7270.0;10.00;0.1984;0.4272;0.7477;0.5722;47.913;0.1373;0.9003;0.9689;22.812;35.400;70.648;37.766;11.749;54.092;0.8545;0.4807;0.2365;0.1831
R23;REM;8800.0;8810.0;10.00;0.0458;0.0305;0.0381;0.0458;0.0534;0.1678;49.133;0.7935;12.741;21.591;23.270;284.500;21.973;28.229;18.234;0.9308;13.428;0.2823
R23;REM;8920.0;8930.0;10.00;0.0305;0.0305;0.0305;0.0305;0.0305;0.0458;15.030;59.204;42.191;0.6180;24.796;52.185;40.970;0.3128;0.9003;20.752;0.4425;0.4120
R23;REM;9280.0;9290.0;10.00;0.0458;0.0534;0.0534;0.0534;0.0839;0.1068;22.202;0.7935;0.9155;324.936;2.319.412;103.989;0.5569;0.3204;0.4349;0.4959;0.5264;0.0763
R23;REM;9670.0;9680.0;10.00;0.0305;0.0305;0.0458;0.0305;0.0305;0.0305;16.708;21.744;0.6180;12.207;0.8011;27.313;27.542;0.9537;27.618;75.836;23.499;16.174
R23;REM;9740.0;9750.0;10.00;0.0839;0.0687;0.0839;0.5417;10.834;0.5722;0.9308;0.4883;0.9842;0.5569;34.103;64.774;22.888;38.528;34.866;21.896;19.150;0.6638
R23;REM;10600.0;10610.0;10.00;0.0610;0.0534;0.0687;0.2136;0.0610;0.0839;167.542;11.978;35.248;27.924;48.065;94.223;0.1678;31.433;45.547;18.234;30.670;18.845
R23;REM;10700.0;10710.0;10.00;0.2136;0.0916;0.2594;0.1602;0.1297;0.0610;140.228;42.572;13.046;0.5569;24.872;291.595;0.1526;0.2441;0.2747;0.3128;31.967;0.9257
R23;REM;12130.0;12140.0;10.00;0.6714;0.3815;0.3891;0.3433;0.3891;0.3433;0.4196;0.6332;0.1984;0.6180;30.594;27.237;19.531;41.962;58.441;24.414;0.1450;0.4730
R23;REM;13240.0;13250.0;10.00;0.3281;0.3586;0.2365;0.2747;0.1984;0.1297;76.065;42.725;22.354;11.597;49.744;0.7553;21.591;42.801;0.5875;13.733;29.984;18.387
R23;REM;13580.0;13590.0;10.00;0.1297;0.0916;0.0916;0.0687;0.0229;0.0153;24.948;0.5341;11.139;0.4501;99.030;492.554;79.041;324.783;69.046;15.182;116.882;227.814
R23;REM;13640.0;13650.0;10.00;0.4654;0.4196;0.1755;0.1526;0.0458;0.0153;43.411;30.823;17.166;0.5264;67.596;240.250;46.997;13.046;11.597;11.063;34.180;13.733
R23;REM;13720.0;13730.0;10.00;14.572;10.529;0.8545;0.6714;0.4807;0.1907;14.954;11.978;0.3510;25.024;145.340;90.485;0.4272;21.286;63.171;10.834;13.504;20.142
R23;REM;14860.0;14870.0;10.00;0.2441;0.2060;0.2518;0.1831;0.1526;0.1678;27.084;20.447;27.924;33.188;20.294;130.920;100.708;88.882;38.986;39.673;0.7629;0.3738
R23;REM;16610.0;16620.0;10.00;0.1450;0.1373;0.0687;0.0305;0.2060;0.0153;21.210;0.3738;82.169;343.018;879.211;504.303;47.455;59.967;0.5417;0.1144;0.5264;0.5035
R23;REM;16680.0;16690.0;10.00;0.2213;0.2060;0.1831;0.1907;0.1221;0.0916;62.180;46.616;0.3433;30.899;27.542;49.820;0.4425;22.964;142.899;43.640;0.3204;0.1144
R23;REM;17100.0;17110.0;10.00;0.8545;0.8163;0.7324;0.6409;0.4196;0.2365;0.2136;130.463;49.820;25.482;110.092;139.847;52.948;13.733;47.150;47.684;0.2365;0.5646
R23;REM;18390.0;18400.0;10.00;0.4959;0.5646;0.4654;0.5341;0.4196;0.3357;97.351;44.479;14.496;43.411;30.899;43.793;55.466;90.714;93.079;44.022;14.267;11.978
R23;REM;18630.0;18640.0;10.00;0.1755;0.1450;0.0763;0.0153;0.0153;0.0153;23.956;32.883;39.444;313.492;1.360.245;617.523;53.787;18.005;13.199;0.1526;20.065;34.866
R23;REM;18790.0;18800.0;10.00;0.9689;0.8621;0.6256;0.3510;0.1984;0.1907;0.6638;64.087;122.681;16.479;25.940;40.741;125.732;44.556;10.452;23.804;0.6332;0.0839
R23;REM;19210.0;19220.0;10.00;56.305;102.005;0.2518;0.1755;0.1526;0.1450;32.349;13.123;26.169;13.657;27.924;82.397;0.6027;0.7477;0.6943;0.4349;0.0687;0.1297
R23;REM;20030.0;20040.0;10.00;0.0992;0.0992;10.605;0.0916;0.0992;0.2518;54.321;77.972;161.133;28.229;20.065;64.850;14.420;0.5493;0.6561;13.428;32.883;88.882
R23;REM;20260.0;20270.0;10.00;0.2823;0.2594;0.2518;0.2747;0.1526;0.1221;15.869;27.161;14.191;12.054;34.485;32.501;42.191;30.441;43.488;57.449;10.681;14.572
R23;REM;22390.0;22400.0;10.00;0.0458;0.0305;0.0305;0.0305;0.0305;0.0458;29.221;39.291;13.809;117.722;231.934;253.983;16.251;0.9995;26.779;0.4272;709.000;892.868
R23;REM;22420.0;22430.0;10.00;32.730;34.409;27.008;22.278;18.311;14.877;0.1526;0.4807;16.098;10.681;0.8545;19.989;20.523;35.629;27.924;28.229;0.2060;0.3891
R23;REM;22450.0;22460.0;10.00;26.245;26.703;25.787;21.057;14.954;0.7782;19.836;35.629;116.577;111.618;158.234;61.264;17.014;20.752;12.054;17.853;14.801;45.013
R23;REM;22520.0;22530.0;10.00;0.0381;0.0153;0.0153;0.0229;0.0153;0.0153;15.869;10.147;0.4044;62.256;130.005;266.190;13.046;15.030;43.488;0.5264;0.2289;0.1755
R23;REM;22900.0;22910.0;10.00;0.3052;0.3510;0.3128;0.3357;0.3357;0.3204;16.937;17.014;27.542;29.221;34.180;92.773;41.504;49.667;42.343;52.185;0.3281;0.2136
R23;REM;23050.0;23060.0;10.00;93.689;174.255;26.321;10.300;0.6790;0.7401;42.191;14.038;0.3510;0.5188;0.6943;56.152;0.2747;0.3967;0.5417;0.5188;0.3128;0.2823
R23;REM;23380.0;23390.0;10.00;0.3662;0.2975;0.2975;0.2747;0.3128;0.2213;12.207;51.804;52.185;41.733;0.6332;31.281;55.237;55.084;172.348;55.847;0.2060;0.3891
R23;REM;23510.0;23520.0;10.00;0.1297;0.0916;0.0687;0.0610;0.0763;0.0610;283.432;167.236;17.548;0.6256;0.4196;10.300;0.0992;0.1678;30.365;37.613;15.259;16.785
R23;REM;25390.0;25400.0;10.00;35.782;186.996;593.338;17.471;0.8621;26.398;0.4654;225.983;0.7324;28.458;50.888;38.910;0.5493;0.2213;11.597;0.3586;0.3586;0.2213
R23;REM;27370.0;27380.0;10.00;22.278;12.589;35.248;0.7782;0.5951;0.3204;36.011;47.684;0.9232;18.311;0.6638;18.463;87.814;51.193;67.062;126.572;0.6638;0.1755
R23;REM;27410.0;27420.0;10.00;49.820;39.520;41.199;28.610;20.294;0.7248;75.226;23.117;10.452;47.379;20.065;12.207;53.635;89.188;59.814;34.027;39.825;49.820
R23;REM;28160.0;28170.0;10.00;0.0534;0.0687;0.0534;0.0458;0.0458;0.0458;29.221;10.376;10.834;66.071;18.539;52.490;28.915;59.586;71.564;15.640;0.6638;0.1755
R23;REM;28200.0;28210.0;10.00;0.1068;0.0992;0.0610;0.0534;0.0458;0.0534;12.360;22.888;23.041;116.196;76.141;68.283;45.624;23.575;24.109;0.3662;24.796;16.098
R23;REM;28230.0;28240.0;10.00;0.1450;0.1068;0.0763;0.0839;0.0610;0.0458;17.395;41.885;37.155;427.551;64.926;18.997;21.210;15.564;0.9079;0.6256;31.815;47.531
R23;REM;4730.0;4750.0;20.00;0.0687;0.0763;0.0687;0.0687;0.0610;0.0534;18.845;10.300;10.834;17.548;34.180;38.757;30.670;11.444;10.223;0.5875;0.5264;0.2594
R23;REM;4770.0;4790.0;20.00;0.0763;0.0610;0.0610;0.0534;0.0534;0.0610;0.2670;0.7401;12.207;20.065;103.683;91.248;22.125;29.755;15.869;0.8698;0.2747;0.4196
R23;REM;5240.0;5260.0;20.00;0.0839;0.0687;0.0763;0.0839;0.0839;0.0687;0.6104;14.420;144.958;44.861;12.283;21.286;81.863;14.267;23.956;48.752;0.2747;0.4196
R23;REM;6050.0;6070.0;20.00;0.6638;0.4730;0.3662;0.2899;0.1831;0.0687;16.708;20.523;41.275;45.929;155.945;66.605;37.155;34.256;48.599;27.618;0.9766;0.7858
R23;REM;6360.0;6380.0;20.00;0.0610;0.0610;0.0610;0.0610;0.0610;0.0458;10.300;12.665;0.9766;0.5646;73.929;613.403;67.062;35.095;42.953;32.425;264.816;101.700
R23;REM;6410.0;6430.0;20.00;0.6256;0.7095;0.7401;0.6332;0.6409;0.3738;67.749;27.161;51.956;14.572;34.103;21.362;18.768;0.4120;15.564;32.272;0.3357;0.7706
R23;REM;6530.0;6550.0;20.00;0.0992;0.1297;0.0687;0.0687;0.0610;0.0610;14.496;19.608;0.4807;0.2441;0.8087;95.901;12.131;0.6332;23.193;18.158;0.3357;0.7706
R23;REM;6590.0;6610.0;20.00;0.5341;0.5112;0.4196;0.2136;0.0839;0.0916;20.294;121.918;0.7706;16.098;12.207;24.948;41.199;26.169;45.319;0.8163;0.4959;0.2747
R23;REM;6680.0;6700.0;20.00;0.2594;0.1755;0.0916;0.0763;0.0534;0.0458;0.7477;12.131;23.117;18.234;188.675;0.8621;0.8774;15.717;0.6485;14.114;0.4959;0.2747
R23;REM;6740.0;6760.0;20.00;0.2060;0.5951;0.3281;0.1907;0.0839;0.0687;0.3052;0.9460;172.272;28.000;0.4654;80.032;15.717;0.7629;10.071;18.539;20.065;0.7629
R23;REM;7460.0;7480.0;20.00;0.3586;0.3586;0.1678;0.2289;0.1526;0.1373;34.409;56.992;30.899;0.8087;28.763;34.714;55.923;34.409;11.673;0.7477;24.185;31.891
R23;REM;9160.0;9180.0;20.00;0.1450;0.0839;0.0458;0.0381;0.0305;0.0305;10.300;38.528;46.616;53.787;150.757;78.812;98.190;71.716;0.9689;20.905;0.1526;0.2594
R23;REM;9300.0;9320.0;20.00;0.4196;107.269;83.771;12.741;0.8392;0.7095;129.013;21.133;98.572;30.746;16.098;11.749;0.3052;0.5646;0.3128;0.6409;0.1526;0.2594
R23;REM;9420.0;9440.0;20.00;0.8774;0.9537;0.8621;0.7019;0.1755;0.1755;44.479;28.992;29.449;16.785;12.665;0.7172;50.888;34.637;28.610;12.054;83.923;25.101
R23;REM;10740.0;10760.0;20.00;0.0839;0.0687;0.0763;0.0763;0.0763;0.0687;0.7172;30.518;52.338;92.163;46.387;27.084;22.430;54.321;22.964;53.329;13.733;0.7401
R23;REM;11600.0;11620.0;20.00;0.2823;0.3052;0.4120;0.2747;0.2518;0.4578;24.567;10.986;25.024;82.245;74.158;380.630;0.7858;16.022;20.599;21.744;0.1831;0.1526
R23;REM;13350.0;13370.0;20.00;0.2289;0.2518;0.2213;0.2441;0.2441;0.2136;35.019;21.515;29.602;0.6256;15.640;22.278;59.967;24.414;29.144;53.406;0.1755;0.1221
R23;REM;13390.0;13410.0;20.00;0.7248;0.6866;0.7629;0.5035;0.1602;0.0916;18.616;65.460;41.885;34.485;21.820;174.179;32.120;16.937;21.133;0.5646;0.1678;0.3204
R23;REM;13420.0;13440.0;20.00;34.180;19.760;12.970;10.605;10.071;10.376;10.300;0.9918;25.253;164.108;90.561;112.686;0.2747;15.411;12.665;12.512;12.054;10.910
R23;REM;13480.0;13500.0;20.00;0.8621;0.7019;0.5035;0.2441;0.1144;0.0687;77.362;19.379;0.9079;11.444;13.733;11.749;14.877;63.324;61.569;0.9918;0.1755;0.1221
R23;REM;13690.0;13710.0;20.00;0.6714;0.5493;0.6104;0.5646;0.4425;0.3738;0.7324;23.422;45.166;50.583;23.575;33.188;28.610;82.703;38.605;34.943;0.1678;0.3204
R23;REM;13750.0;13770.0;20.00;0.7401;0.5798;0.6027;0.6104;0.4807;0.3052;13.199;16.785;73.318;167.465;17.929;13.199;14.572;19.836;17.471;0.7095;0.8087;13.733
R23;REM;14130.0;14150.0;20.00;0.0153;0.0229;0.0229;0.0305;0.0305;0.0153;19.531;0.6943;13.123;23.041;95.978;18.616;35.248;141.449;13.046;34.332;0.5646;0.1831
R23;REM;14330.0;14350.0;20.00;0.5035;0.4272;0.5722;0.1221;0.1221;0.0916;104.599;60.806;36.087;19.836;125.961;330.200;28.763;42.953;0.4196;0.7629;31.281;0.4959
R23;REM;14490.0;14510.0;20.00;20.065;15.106;11.063;0.8316;0.8240;0.6790;0.2899;0.8850;17.776;11.215;15.411;28.534;25.024;0.6714;0.3281;0.2365;0.5646;0.1831
R23;REM;14990.0;15010.0;20.00;0.0305;0.0229;0.0229;0.0229;0.0458;0.0458;114.975;10.605;27.390;343.628;216.446;26.245;20.676;22.812;10.910;0.8698;0.1755;15.564
R23;REM;15840.0;15860.0;20.00;0.3967;0.4272;0.4196;0.3433;0.3815;0.2975;0.9155;0.5722;0.6866;17.242;48.904;51.422;12.283;11.597;12.207;26.474;0.1755;15.564
R23;REM;16750.0;16770.0;20.00;10.223;0.7706;0.7477;0.3128;0.2594;0.1907;26.321;94.376;25.024;0.7858;30.594;32.578;15.869;87.051;24.261;0.8392;0.0687;0.0839
R23;REM;17050.0;17070.0;20.00;0.3433;0.2594;0.2594;0.2747;0.2518;0.2136;20.981;36.621;30.212;38.528;68.665;52.414;36.163;79.498;82.092;88.882;16.556;12.665
R23;REM;17250.0;17270.0;20.00;0.0305;0.0305;0.0305;0.0305;0.0229;0.0305;73.013;56.763;32.196;13.809;33.646;61.035;77.515;59.204;0.4730;17.395;21.133;28.534
R23;REM;17300.0;17320.0;20.00;0.1221;0.1373;0.1373;0.3052;0.1221;0.1755;110.397;18.616;21.744;27.924;22.507;23.727;25.482;15.335;79.117;39.291;0.0687;0.0839
R23;REM;17400.0;17420.0;20.00;0.4196;0.5264;0.5951;0.3738;0.1984;0.0458;15.717;19.836;0.9918;19.760;28.992;251.846;18.158;19.150;19.531;0.6256;0.2365;18.311
R23;REM;17430.0;17450.0;20.00;0.4425;0.3586;0.3357;0.2899;0.2747;0.3281;10.834;0.8316;12.970;23.346;14.420;166.702;13.351;30.899;69.962;17.395;0.2365;18.311
R23;REM;17990.0;18010.0;20.00;14.038;0.9842;0.6409;0.6256;0.5188;0.8926;15.182;74.997;90.637;31.815;0.8469;131.073;66.376;18.387;18.005;129.929;80.185;347.519
R23;REM;18040.0;18060.0;20.00;0.8469;0.7629;0.8240;0.7935;0.4501;0.2060;29.831;76.599;54.550;12.741;51.041;64.392;16.098;23.346;42.953;39.902;50.659;88.348
R23;REM;18090.0;18110.0;20.00;0.6485;0.6714;0.6714;0.5951;0.4425;0.2594;22.583;28.839;29.144;38.223;54.474;29.907;0.7629;12.131;45.166;116.425;0.1526;0.4044
R23;REM;18840.0;18860.0;20.00;0.1068;0.0992;0.0992;0.0992;0.1144;0.0839;21.362;24.567;27.313;139.847;261.993;135.269;42.343;22.507;20.447;40.894;50.659;88.348
R23;REM;19090.0;19110.0;20.00;0.0763;0.0534;0.0534;202.255;0.8011;0.0687;0.4425;0.6027;12.283;63.782;46.387;18.082;0.6561;0.5264;0.3738;0.4730;0.1297;0.0916
R23;REM;19120.0;19140.0;20.00;32.120;0.5722;0.1297;0.0839;0.0687;0.0610;0.2289;0.4196;11.444;10.834;23.651;18.768;0.9232;0.2670;11.444;18.997;0.1297;0.0916
R23;REM;19180.0;19200.0;20.00;0.0687;0.0610;0.0610;0.0610;0.0687;0.0687;10.605;13.123;0.4654;0.1907;14.343;173.645;14.648;12.817;12.741;28.381;14.496;46.463
R23;REM;19230.0;19250.0;20.00;0.1678;0.0992;0.0916;0.0610;0.0610;0.0763;0.5875;11.520;0.8545;0.2365;18.997;129.700;0.3891;0.1907;0.7858;0.3586;0.1068;0.0763
R23;REM;19330.0;19350.0;20.00;0.0763;0.0610;0.0992;0.1144;0.0916;0.1068;0.4272;0.3738;0.1450;0.1831;0.4807;242.462;24.338;12.665;73.318;15.335;0.5264;0.6714
R23;REM;20160.0;20180.0;20.00;0.1297;0.0839;0.0763;0.0763;0.0763;0.0610;17.929;48.752;0.9003;12.360;34.790;25.787;11.673;13.962;14.877;17.319;0.8698;0.6409
R23;REM;20510.0;20530.0;20.00;0.0916;0.0992;0.1068;0.0839;0.0763;0.0916;18.158;20.294;0.4044;58.975;486.450;390.244;51.651;15.488;11.063;14.877;0.1068;0.0763
R23;REM;21010.0;21030.0;20.00;0.0687;0.0763;0.0763;0.0839;0.0839;0.0839;12.741;0.6180;44.479;93.994;284.042;579.987;28.992;49.667;17.319;0.7324;0.2823;0.7095
R23;REM;21350.0;21370.0;20.00;0.1831;0.1450;0.1526;0.1450;0.1221;0.0992;11.292;0.7324;24.261;15.869;30.060;155.487;0.7553;0.6256;0.3586;11.749;0.2823;0.7095
R23;REM;21930.0;21950.0;20.00;0.9155;0.6027;0.5112;0.9003;0.4883;0.4501;267.029;108.414;16.708;10.147;44.632;16.174;21.667;39.139;67.368;12.817;0.2670;0.2365
R23;REM;22560.0;22580.0;20.00;34.561;33.188;26.093;18.005;0.9537;0.5951;0.5417;0.6027;0.8316;22.354;38.147;16.098;35.553;96.664;43.335;10.223;0.3433;10.147
R23;REM;22600.0;22620.0;20.00;32.654;28.763;23.117;24.643;0.1831;0.0229;14.114;15.488;22.659;57.220;39.597;46.539;10.300;10.147;0.9613;0.1144;0.3433;10.147
R23;REM;22640.0;22660.0;20.00;14.191;13.199;10.757;0.8774;0.7706;0.7858;23.804;0.9537;15.030;18.539;11.978;63.171;22.812;51.498;81.024;26.932;0.9766;44.403
R23;REM;22700.0;22720.0;20.00;0.5875;0.2289;0.0763;0.0610;0.0305;0.0153;142.212;33.340;79.880;30.899;231.552;416.946;25.101;33.417;14.114;0.6104;71.869;39.520
R23;REM;23430.0;23450.0;20.00;0.5798;0.6638;0.5646;0.5798;0.5951;0.3510;42.801;17.700;38.757;38.910;14.648;31.891;17.471;67.749;57.373;61.646;0.9766;44.403
R23;REM;23730.0;23750.0;20.00;0.1602;0.1526;0.1450;0.1373;0.1526;0.1297;0.0763;0.2289;0.9613;0.3586;0.1755;100.708;53.482;20.142;0.9995;39.215;0.9537;0.3586
R23;REM;24420.0;24440.0;20.00;0.5264;0.5875;0.5417;0.4501;0.5417;0.5035;133.667;70.114;125.580;141.068;73.700;46.768;0.4044;22.507;10.529;22.430;11.368;13.428
R23;REM;27020.0;27040.0;20.00;87.814;121.689;34.866;0.6409;28.305;0.9766;23.575;55.084;216.446;102.158;63.324;600.357;0.3967;0.0839;0.0229;0.1755;24.414;17.090
R23;REM;27070.0;27090.0;20.00;18.616;11.749;0.8240;0.6561;0.6027;0.1602;38.986;15.182;28.000;21.286;136.414;578.003;39.673;69.351;14.725;0.7553;0.2289;0.3281
R23;REM;27160.0;27180.0;20.00;10.223;0.7858;0.5951;0.2060;0.3815;0.1831;0.5188;43.716;0.5035;13.351;29.297;46.234;27.237;29.755;45.471;32.043;0.2747;0.5569
R23;REM;27300.0;27320.0;20.00;16.174;11.139;0.2747;46.921;0.0458;0.0305;0.9613;0.4425;0.1221;14.648;11.139;0.1450;15.793;0.3967;0.1373;0.2060;0.2518;0.2441
R23;REM;27430.0;27450.0;20.00;0.0534;0.3204;0.0534;0.0305;0.0305;0.0153;37.994;0.7706;0.7095;0.8621;20.142;12.817;0.4883;0.1984;10.681;0.5493;0.2289;0.3281
R23;REM;27690.0;27710.0;20.00;0.3510;0.2670;0.2060;0.0763;0.0458;0.0305;0.9003;16.556;12.970;40.436;369.568;62.790;34.637;16.022;0.7324;0.5569;0.2747;0.5569
R23;REM;28110.0;28130.0;20.00;0.0458;0.0305;0.0381;0.0458;0.0381;0.0381;48.676;41.580;45.395;104.218;120.468;55.923;33.569;17.700;11.597;29.526;0.2518;0.2441
R23;REM;28340.0;28360.0;20.00;0.0610;0.0610;0.0610;0.0458;0.0458;0.0458;0.5798;96.893;97.885;75.760;15.488;32.196;140.839;32.196;18.616;42.572;0.2289;0.1678
R23;REM;4860.0;4890.0;30.00;0.0839;0.0763;0.0839;0.0916;0.0763;0.0763;0.2899;14.801;48.447;0.6790;38.757;18.921;25.787;21.057;0.8774;191.803;0.1526;0.9155
R23;REM;6180.0;6210.0;30.00;0.3891;0.3738;0.3052;0.1144;0.1144;0.0992;31.662;42.648;33.951;46.158;11.292;56.000;28.076;31.281;22.583;0.5722;0.4654;0.9079
R23;REM;9360.0;9390.0;30.00;0.3433;0.2441;0.1907;0.1526;0.1144;0.1068;44.785;23.727;0.6180;112.991;56.610;0.9766;10.757;25.101;10.986;10.452;10.834;11.902
R23;REM;14390.0;14420.0;30.00;14.496;12.741;0.7935;0.4349;0.3815;0.1602;69.122;28.000;14.343;11.902;13.962;73.547;13.275;27.390;19.608;0.7706;0.0534;0.2594
R23;REM;17340.0;17370.0;30.00;0.1907;0.1450;0.1755;0.1602;0.1450;0.1602;0.7553;12.283;11.902;21.210;0.9384;186.996;0.8316;13.199;15.793;19.989;10.452;0.3891
R23;REM;18540.0;18570.0;30.00;0.6027;0.6256;0.5798;0.4501;0.2747;0.1144;15.182;62.103;106.735;107.422;30.212;32.883;103.760;62.790;29.984;0.2441;0.9003;0.0992
R23;REM;20370.0;20400.0;30.00;0.0916;0.0916;0.0916;0.0763;0.0839;0.0916;10.529;17.242;15.945;31.967;148.697;46.539;53.940;50.354;25.711;26.169;12.589;10.605
R23;REM;20870.0;20900.0;30.00;0.1678;0.2594;0.1602;0.1450;0.1297;0.1144;10.147;0.9842;27.390;26.932;13.580;57.755;34.103;0.9155;0.5569;16.556;26.169;16.937
R23;REM;23010.0;23040.0;30.00;0.2670;0.2289;0.2213;0.1602;0.1526;0.1450;76.065;92.087;15.182;0.9232;30.441;12.894;33.493;45.242;60.120;23.880;0.8392;0.9689
R23;REM;23130.0;23160.0;30.00;0.1831;0.1984;0.1831;0.1602;0.2823;0.1144;0.6561;10.834;16.708;31.052;139.236;27.847;162.430;64.011;18.387;39.978;18.311;0.9766
R23;REM;23180.0;23210.0;30.00;0.6866;0.6790;0.6790;0.7553;0.6332;0.4654;19.150;15.717;21.210;23.956;79.880;145.416;42.343;33.569;29.297;18.692;41.351;29.297
R23;REM;23550.0;23580.0;30.00;0.6638;0.5875;0.2594;0.2213;0.2136;0.1755;93.079;13.351;10.452;19.989;0.5646;0.5875;34.332;23.117;20.981;26.016;18.539;26.398
R23;REM;26350.0;26380.0;30.00;0.1373;0.1297;0.1221;0.1373;0.3738;0.8698;200.882;53.177;68.130;27.161;16.098;22.202;32.196;27.237;32.806;0.6256;23.346;15.411
R23;REM;26960.0;26990.0;30.00;0.1907;0.1221;0.0992;0.1221;0.1068;0.1526;12.817;25.940;29.221;0.7935;0.9232;20.981;23.346;0.9995;15.640;119.476;0.6714;10.071
R23;REM;27240.0;27270.0;30.00;35.400;41.504;39.368;40.283;28.381;11.749;23.041;36.240;26.398;20.370;23.727;13.580;32.349;13.962;24.796;45.319;27.542;11.444
R23;REM;28280.0;28310.0;30.00;0.0610;0.0534;0.0534;0.0458;0.0458;0.0381;32.196;18.005;47.607;17.853;10.910;22.964;40.207;17.166;83.389;32.806;0.1373;0.1678
R25;REM;2505.1;2509.1;4.00;14.801;10.986;10.910;0.9766;12.436;82.245;0.8011;23.422;14.648;11.978;0.9079;0.6180;19.531;20.599;25.635;55.237;12.589;0.0000
R25;REM;8015.0;8019.0;4.00;0.6409;0.7324;0.6027;0.6332;15.717;52.414;0.4349;20.828;34.027;13.657;0.3815;37.384;39.902;18.539;11.673;48.065;20.218;0.0000
R25;REM;14666.0;14670.0;4.00;0.1907;0.1602;0.1450;0.0839;0.1144;22.812;14.496;13.733;29.907;51.117;0.2441;36.316;16.556;0.7935;16.022;15.411;18.387;0.0000
R25;REM;25548.0;25552.0;4.00;0.9613;0.9003;10.300;0.6714;0.8163;30.975;20.905;0.9537;21.439;0.9613;0.4196;0.3204;35.477;17.776;15.945;31.128;0.2823;0.0000
R25;REM;5375.0;5379.2;4.20;0.1144;0.1068;0.1831;0.1144;0.2670;36.545;0.6485;0.8011;19.531;0.0916;0.0610;0.2213;16.708;11.368;10.071;11.368;0.5188;0.0000
R25;REM;28215.0;28219.2;4.20;0.5875;0.6714;0.6332;0.5341;0.9155;64.163;0.5569;20.370;29.221;10.910;0.4730;0.3204;86.899;16.403;0.6027;0.7019;12.589;0.0000
R25;REM;2219.0;2223.4;4.40;0.8774;0.9079;0.7553;0.6485;0.9537;88.882;27.390;55.923;22.736;14.725;0.1984;0.3662;66.147;16.098;20.370;0.7401;12.207;0.0000
R25;REM;22381.1;22385.5;4.40;14.725;16.937;16.632;14.114;12.970;45.013;13.504;22.659;41.351;48.523;0.6104;0.2136;64.240;23.956;0.9232;14.572;15.182;0.0000
R25;REM;3917.0;3921.5;4.50;14.572;14.038;15.335;13.962;17.166;39.902;0.9155;0.9613;16.785;0.6180;0.2823;0.3357;30.975;28.229;25.406;201.416;0.0534;0.0000
R25;REM;7718.1;7722.7;4.60;15.869;17.624;15.717;16.022;14.877;43.259;19.684;16.022;50.354;0.6638;0.2594;0.9613;12.970;28.687;24.185;41.733;0.0534;0.0000
R25;REM;21932.1;21936.7;4.60;13.199;13.885;13.428;14.267;12.436;23.880;0.3738;25.864;42.038;0.0458;0.0458;0.3586;35.248;15.869;12.360;85.831;16.785;0.0000
R25;REM;4078.0;4082.7;4.70;13.657;11.749;10.376;11.215;20.905;37.918;13.275;12.131;26.932;18.463;0.2594;0.8774;12.894;21.210;14.877;86.060;0.3510;0.0000
R25;REM;16829.0;16833.8;4.80;0.2136;0.1984;0.2441;0.2441;0.2518;24.185;0.7477;23.270;31.433;10.834;0.0992;0.0534;13.046;23.041;17.166;46.387;14.877;0.0000
R25;REM;382.1;386.9;4.80;0.3357;0.3510;0.3510;0.3891;0.3967;16.022;13.885;16.785;23.270;0.1755;0.0610;0.5188;73.929;31.586;22.888;90.790;0.9155;0.0000
R25;REM;163.0;167.8;4.80;0.4959;0.4501;0.4807;0.4730;0.5951;17.090;25.253;65.460;46.692;20.905;0.6180;0.5951;91.400;20.447;11.749;31.586;61.951;0.0000
R25;REM;1819.0;1823.9;4.90;0.5646;0.4883;0.4730;0.5264;0.5493;16.785;33.646;66.452;93.079;15.945;0.5417;11.215;111.008;16.937;17.548;39.597;0.6790;0.1984
R25;REM;2402.0;2406.9;4.90;0.8392;0.7629;0.5417;0.3815;0.4654;30.365;27.390;108.414;29.526;0.9537;12.817;17.319;37.994;10.681;25.024;95.062;0.4425;0.0000
R25;REM;21065.0;21069.9;4.90;12.207;13.123;12.054;11.978;15.488;24.948;0.1526;13.351;10.529;0.6485;0.3052;0.2518;38.681;16.785;0.7477;0.6409;0.2365;14.191
R25;REM;23201.1;23206.0;4.90;0.3281;0.3433;0.2823;0.2441;0.3281;13.504;18.005;121.918;28.610;74.692;20.294;20.370;84.229;21.896;0.9232;12.054;0.6790;0.1984
R25;REM;7502.0;7507.0;5.00;0.4730;0.3052;0.1755;0.1221;0.0992;22.964;0.6027;40.588;86.746;120.163;25.177;30.441;27.924;14.191;0.9155;11.826;0.3052;0.3357
R25;REM;17676.0;17681.0;5.00;0.4044;0.3891;0.3204;0.3433;0.4272;21.667;0.4654;28.915;50.964;0.9384;0.1602;0.3586;163.727;0.8774;13.046;23.956;29.831;21.362
R25;REM;25630.0;25635.1;5.10;0.9155;0.8850;10.300;0.9537;10.605;17.242;0.4654;18.768;25.558;0.6485;0.1144;0.4654;60.730;24.872;22.507;23.956;18.158;12.360
R25;REM;13188.1;13193.2;5.10;0.2518;0.1907;0.2136;0.1831;0.2136;0.7401;0.3738;18.768;18.082;0.8316;0.1678;0.1144;0.3433;0.2823;0.5493;0.9766;27.237;0.3967
R25;REM;19681.1;19686.2;5.10;0.0305;0.0305;0.0229;0.0229;0.0229;0.7019;15.182;17.624;80.109;31.204;0.3815;0.3815;36.392;37.689;17.929;13.657;41.428;0.4578
R25;REM;7163.0;7168.2;5.20;0.5646;0.4883;0.4807;0.5188;0.4807;12.436;0.9384;30.060;50.354;26.932;0.6943;0.3662;101.852;15.335;0.6409;14.343;0.0839;0.1068
R25;REM;22488.0;22493.2;5.20;10.300;11.978;12.894;12.512;12.131;17.090;0.2365;28.000;52.567;11.139;0.1526;0.2670;38.757;0.5264;16.251;36.316;0.0839;0.1068
R25;REM;23554.0;23559.2;5.20;0.4730;0.4120;0.4272;0.3738;0.3510;0.7553;11.749;14.572;24.414;0.9155;0.3510;0.0839;50.964;26.093;26.474;38.452;26.550;11.749
R25;REM;13159.0;13164.3;5.30;0.0992;0.0992;0.0916;0.0534;0.0458;0.7248;0.8926;23.499;13.046;0.8926;0.2060;0.2289;54.092;20.447;14.725;28.610;43.411;55.847
R25;REM;19415.0;19420.3;5.30;0.0610;0.0305;0.0000;0.0000;0.1602;18.539;0.4578;14.420;92.468;18.692;0.4959;14.648;17.624;21.820;10.757;19.531;0.7553;0.4120
R25;REM;1898.1;1903.4;5.30;10.529;0.9842;0.9689;0.9689;0.8087;11.902;0.4425;27.084;12.512;13.733;0.3128;0.6180;22.812;21.210;22.964;45.471;17.242;0.8240
R25;REM;18259.0;18264.4;5.40;0.0992;0.0992;0.0916;0.1297;0.2823;14.496;0.5646;21.973;16.632;14.877;0.0839;0.1755;13.962;0.8545;0.8621;25.482;10.300;24.567
R25;REM;12343.0;12348.5;5.50;14.496;11.520;10.147;0.9079;0.8698;12.665;18.692;28.305;185.852;142.288;14.954;0.5035;47.836;12.589;21.896;13.199;0.0534;0.2289
R25;REM;23715.0;23720.5;5.50;16.327;11.673;10.910;0.7629;0.8316;10.757;23.117;39.139;40.970;22.354;0.1907;0.0229;45.319;37.155;19.684;10.757;0.0534;0.2289
R25;REM;3789.0;3794.6;5.60;208.664;0.8163;0.6790;0.6638;0.8392;11.215;12.283;21.057;14.038;0.1297;0.4272;0.2518;18.616;0.8850;14.114;42.725;28.763;0.7629
R25;REM;23608.0;23613.9;5.90;0.5112;0.4196;0.3281;0.3128;0.2899;0.3662;18.387;24.872;34.790;15.564;0.9613;0.5035;47.913;23.499;19.989;27.466;169.144;89.798
R25;REM;22831.0;22837.2;6.20;0.6409;0.5646;0.5722;0.5493;0.6104;0.6332;0.7935;32.806;12.512;11.902;0.0458;14.191;45.471;11.749;28.305;32.196;0.4120;0.4349
R25;REM;23969.0;23975.2;6.20;0.1373;0.0916;0.1068;0.0992;0.1297;0.1984;0.4501;55.618;223.846;0.8240;51.727;11.139;45.700;10.529;11.139;27.161;38.757;0.7324
R25;REM;12762.0;12768.4;6.40;0.6714;0.5341;0.7782;0.6027;0.5035;0.5112;21.362;33.493;62.485;0.6409;22.583;0.4578;45.395;31.204;11.749;18.616;0.1678;0.1907
R25;REM;18416.1;18422.6;6.50;0.1755;0.1297;0.0992;0.0916;0.0916;0.0839;29.297;22.736;14.038;0.1907;0.0305;0.0534;111.618;12.817;0.5951;28.381;0.5493;0.0839
R25;REM;8199.1;8205.7;6.60;0.0458;0.0458;0.0458;0.0458;0.0458;0.0610;320.740;556.793;942.841;31.738;191.956;507.355;0.2975;0.5112;0.2747;12.512;98.877;61.722
R25;REM;25123.0;25129.8;6.80;0.2289;0.1068;0.1144;0.0916;0.0992;0.1221;11.597;66.147;86.975;66.223;50.659;175.552;56.076;19.226;0.6790;16.937;0.6866;0.7172
R25;REM;3352.0;3358.8;6.80;12.131;0.9537;0.9308;0.9995;11.292;10.986;23.422;10.147;29.297;0.2441;0.0610;0.6256;30.136;21.133;16.174;60.883;0.1373;0.2899
R25;REM;25008.1;25014.9;6.80;0.6104;0.5264;0.4501;0.4425;0.4196;0.7172;0.8087;18.158;42.953;11.444;16.022;11.215;19.302;28.076;32.654;49.667;17.395;0.3662
R25;REM;7231.1;7238.0;6.90;0.9766;0.8698;0.9003;0.9232;0.8316;0.9232;13.275;18.158;12.741;13.657;0.1602;0.3204;24.033;23.727;23.804;42.953;42.191;32.120
R25;REM;14290.1;14297.0;6.90;0.0610;0.0534;0.0534;0.0610;0.0305;0.0305;0.2975;97.198;622.787;129.776;10.757;21.896;35.782;14.496;0.2975;0.8621;0.1577;0.2289
R25;REM;1876.0;1883.0;7.00;0.8774;0.7935;0.7324;0.5951;0.6485;0.7019;24.643;53.864;59.052;0.2594;0.6638;0.2823;47.760;12.817;12.970;87.357;11.902;0.9460
R25;REM;18308.1;18315.1;7.00;0.8087;0.2213;0.1221;0.2518;0.3357;0.3738;0.8011;37.460;16.632;0.5264;0.1602;0.0992;0.7019;16.098;35.706;48.828;78.049;48.294
R25;REM;26780.0;26787.1;7.10;10.376;11.520;10.452;0.9384;0.8698;11.520;11.215;0.8087;15.411;0.7172;0.1907;0.2289;11.292;20.981;18.768;32.196;0.4883;0.5264
R25;REM;7363.0;7370.1;7.10;11.063;11.444;13.046;10.681;11.520;14.725;24.567;11.520;33.646;88.501;0.9689;0.6866;14.648;23.575;22.888;16.632;0.8163;48.294
R25;REM;12825.1;12832.2;7.10;0.8545;10.147;0.7935;0.5493;0.6104;0.6943;0.9384;34.332;24.414;0.3281;19.302;0.7401;49.667;0.6866;16.861;77.896;32.043;20.828
R25;REM;28349.1;28356.2;7.10;0.0458;0.0534;0.0534;0.0458;0.0381;0.0610;89.493;52.185;28.458;189.896;28.381;80.109;0.8926;28.458;26.321;0.5035;0.6638;0.5493
R25;REM;9256.1;9263.4;7.30;0.2060;0.1907;0.1831;0.1755;0.0839;0.1373;10.986;24.872;18.768;19.073;30.441;0.8774;73.624;16.403;10.376;11.826;17.395;20.676
R25;REM;7441.0;7448.5;7.50;13.885;11.520;0.8621;0.4959;0.4654;0.4578;11.826;36.163;46.539;31.891;33.951;0.8774;89.264;27.084;22.278;48.752;0.1831;0.4501
R25;REM;9510.0;9517.5;7.50;0.3815;0.2670;0.1068;0.1755;0.3586;19.760;18.387;13.199;18.158;45.166;21.210;22.583;37.155;0.8392;0.6943;13.199;205.002;50.659
R25;REM;17400.1;17407.6;7.50;0.5188;0.5264;0.4272;0.3967;0.3281;0.3281;28.229;27.847;36.163;19.684;0.9689;0.3204;44.022;46.158;24.109;21.057;37.918;37.155
R25;REM;22703.1;22710.6;7.50;0.9079;0.8011;0.5264;0.4883;0.5341;0.5417;26.245;21.057;48.523;55.847;0.1831;39.444;53.329;11.444;17.166;13.275;0.8392;21.439
R25;REM;13062.0;13069.7;7.70;0.1602;0.1831;0.1755;0.1678;0.1602;0.1678;10.986;34.409;41.275;43.793;0.8698;0.5646;49.057;16.785;25.635;14.191;254.288;88.043
R25;REM;19867.0;19874.7;7.70;0.0458;0.0534;0.0610;0.0458;0.0458;0.0610;0.1831;17.090;40.436;14.038;0.6638;0.3662;20.447;10.300;12.360;13.199;17.700;0.6866
R25;REM;25978.0;25985.7;7.70;20.065;15.564;15.030;16.098;17.548;19.379;0.6943;13.580;15.564;0.1221;0.1068;0.4730;29.755;14.954;24.490;31.509;0.5341;24.414
R25;REM;8054.0;8061.8;7.80;0.5112;0.5341;0.5112;0.4883;0.4501;0.4883;0.5951;27.084;30.975;0.2441;0.5035;0.5188;32.349;25.101;14.572;74.615;12.512;13.428
R25;REM;7855.1;7863.0;7.90;13.199;0.0534;0.0610;0.0992;0.1907;0.0534;35.324;28.076;72.250;86.060;74.844;647.049;20.142;0.8926;0.7324;23.575;51.727;90.714
R25;REM;13249.0;13256.9;7.90;0.1297;0.1221;0.1221;0.1221;0.1068;0.1602;0.9537;38.986;169.601;18.082;20.294;0.7553;46.387;17.548;0.8316;26.474;31.891;23.422
R25;REM;3770.0;3777.9;7.90;16.632;12.589;0.4272;0.2823;0.2518;0.2670;30.518;19.531;26.932;52.567;51.804;67.444;65.842;19.302;0.6790;0.4730;0.1831;0.0916
R25;REM;1980.0;1988.0;8.00;0.3586;0.2365;0.2060;0.1831;0.1984;0.7401;0.4425;26.474;104.828;52.948;0.1755;0.6027;34.180;13.275;13.580;23.880;30.746;10.452
R25;REM;11701.0;11709.0;8.00;0.1755;0.5264;0.1831;0.5493;0.0458;0.0458;12.589;24.567;34.714;104.294;201.874;82.779;55.847;19.455;20.065;12.970;51.422;92.697
R25;REM;12284.0;12292.1;8.10;13.580;13.275;12.589;13.809;13.351;15.030;0.2365;12.512;18.158;0.3433;0.0534;0.8774;30.289;13.504;16.937;217.133;0.2136;0.1221
R25;REM;25703.0;25711.3;8.30;10.757;10.529;10.300;0.9537;0.9995;0.8011;0.4044;46.387;152.130;83.084;43.259;17.853;57.602;28.534;10.529;0.8698;0.3967;0.1526
R25;REM;2483.0;2491.3;8.30;12.741;11.826;12.360;0.6256;0.3510;15.030;0.5646;40.283;90.179;55.466;86.823;37.766;28.763;14.114;12.894;13.962;0.1755;0.5035
R25;REM;23332.1;23340.5;8.40;0.9918;0.9613;10.223;0.7629;0.6561;0.8011;0.6561;10.147;22.964;21.133;0.8163;0.3815;57.449;25.330;24.796;38.376;16.556;21.133
R25;REM;24706.0;24714.4;8.40;0.0916;0.4044;0.0763;0.0534;0.0458;0.0458;28.687;49.210;69.656;30.899;0.7401;12.360;41.656;13.504;0.5722;45.624;0.2213;0.3510
R25;REM;3656.1;3664.6;8.50;0.7935;0.9308;0.7324;0.6561;0.6409;0.7019;30.899;23.193;14.572;0.6943;0.3052;0.8392;54.932;10.681;0.9460;32.730;377.579;136.185
R25;REM;17060.0;17068.6;8.60;0.1068;0.1602;0.1068;0.0687;0.0610;0.1144;30.365;34.485;34.637;18.311;19.913;22.659;64.926;27.313;21.591;50.735;0.4196;0.4272
R25;REM;5040.0;5048.7;8.70;0.5798;0.5112;0.5264;0.4349;0.3891;0.3510;22.202;22.049;35.477;10.223;37.155;12.131;119.781;28.076;20.905;37.537;17.242;38.834
R25;REM;12175.0;12183.8;8.80;0.6714;0.7095;0.6638;0.3433;0.3815;0.3433;0.8011;57.755;54.321;48.141;24.261;0.5951;97.275;11.597;0.6409;0.3967;11.902;40.588
R25;REM;3395.1;3403.9;8.80;0.8545;0.7858;0.5951;0.4501;0.3128;0.2136;25.253;45.166;24.109;48.828;31.128;26.169;147.247;18.463;0.5569;0.4044;0.1907;0.1755
R25;REM;7337.0;7345.9;8.90;0.6561;0.6561;0.5951;0.5417;0.3738;0.2899;0.3204;15.411;43.640;56.458;37.384;36.850;66.147;19.531;20.905;14.420;81.940;42.953
R25;REM;2559.0;2567.9;8.90;0.7019;0.7477;0.4349;0.2670;0.2060;0.2136;17.929;20.828;16.861;11.978;45.013;0.8469;84.000;25.253;28.915;56.839;13.809;0.7401
R25;REM;9400.0;9409.1;9.10;0.2289;0.1831;0.2060;0.1297;0.7019;0.1373;0.6943;31.204;18.387;26.855;0.7553;26.093;56.229;0.7019;0.5951;15.259;12.131;15.793
R25;REM;13796.0;13805.1;9.10;0.1602;0.1297;0.1755;0.1373;0.1144;0.1144;13.123;33.875;49.057;13.504;0.4120;13.885;53.329;0.8621;0.3815;0.7248;22.049;12.360
R25;REM;11341.0;11350.2;9.20;0.2594;0.2747;0.2747;0.2899;0.3815;0.7095;10.986;0.9842;22.278;0.2365;0.4578;18.158;34.027;25.711;19.073;45.624;43.793;10.147
R25;REM;25753.0;25762.2;9.20;14.572;12.054;12.207;12.207;0.9079;0.6561;0.3967;22.430;83.771;57.220;68.283;31.433;31.586;13.351;17.090;18.082;143.204;16.556
R25;REM;19112.0;19121.3;9.30;0.1755;0.0610;0.0305;0.0381;0.0153;0.0153;0.4501;51.651;71.259;0.6866;32.654;85.220;0.4044;0.7477;0.9995;15.030;0.6638;14.420
R25;REM;13665.0;13674.4;9.40;0.0687;0.0305;0.0305;0.0458;0.0458;0.0381;29.144;20.218;44.174;28.534;12.512;0.3357;37.155;15.564;14.496;34.256;0.1450;0.2289
R25;REM;21132.1;21141.8;9.70;12.283;13.275;0.7706;0.4654;0.4425;0.4425;15.488;41.733;15.869;0.5569;0.2594;0.7477;71.640;17.624;0.7782;13.504;0.1373;0.2747
R25;REM;26234.0;26243.7;9.70;21.820;13.885;12.512;0.7553;0.5569;0.2594;19.836;136.337;86.136;19.379;22.278;22.888;0.7401;0.4654;12.589;47.531;19.913;0.4425
R25;REM;26058.0;26067.8;9.80;10.300;0.8392;0.7706;0.7706;0.7553;0.7629;20.447;15.411;21.667;10.223;18.311;41.199;20.370;34.409;0.8850;71.411;12.512;20.370
R25;REM;2999.0;3008.9;9.90;0.7553;0.5951;0.4272;0.3662;0.2518;0.1831;35.324;21.744;34.332;34.561;10.605;0.9918;70.648;57.907;15.411;35.324;0.1221;0.0839
R25;REM;23812.1;23822.1;10.00;0.1297;0.1373;0.1297;0.1526;0.1373;0.1526;0.1602;13.046;56.381;113.831;176.163;152.740;65.308;20.294;0.9613;0.7553;45.166;26.321
R25;REM;24782.0;24792.1;10.10;0.2136;0.2441;0.2060;0.2060;0.3586;0.4349;0.7553;11.139;14.877;0.9537;0.3738;0.2670;26.779;23.041;16.937;16.327;18.311;19.684
R25;REM;2775.1;2785.2;10.10;0.5646;0.5875;0.5264;0.4120;0.2213;0.1450;0.5569;43.793;116.882;85.068;19.760;13.275;121.002;34.256;11.520;26.627;0.0916;0.1297
R25;REM;13851.0;13861.2;10.20;0.1831;0.1831;0.1907;0.1755;0.1831;0.2899;0.4196;20.752;26.779;0.3738;0.1526;0.0687;141.754;17.090;17.471;74.692;76.370;0.7629
R25;REM;14039.0;14049.2;10.20;0.1221;0.1297;0.0839;0.0763;0.1068;0.0763;0.4654;26.016;18.158;0.7477;0.3128;0.3662;34.866;17.700;14.114;21.439;72.556;28.763
R25;REM;28455.1;28465.3;10.20;0.4959;0.3281;0.2594;0.9689;0.7095;0.1144;21.820;10.910;25.177;15.640;78.430;62.332;21.667;19.073;0.7172;15.793;0.8469;0.1144
R25;REM;8661.0;8671.3;10.30;0.5035;0.5112;0.5417;0.7706;0.7935;12.054;10.147;26.550;58.975;17.242;0.0916;26.779;65.460;20.981;13.199;0.4349;21.896;11.597
R25;REM;13944.1;13954.4;10.30;0.4044;0.0610;0.0229;0.0229;0.0153;0.0305;0.4120;134.506;218.506;73.318;40.970;21.515;10.376;13.046;0.8392;0.3281;0.5035;0.2136
R25;REM;2007.0;2017.3;10.30;0.4425;0.1984;0.1755;0.1297;0.1144;0.0992;0.6790;37.766;41.962;41.504;201.111;118.866;32.654;18.234;17.090;23.575;14.648;21.133
R25;REM;7839.0;7849.3;10.30;0.7324;0.7706;0.8926;0.1602;0.0763;0.1602;0.7935;15.259;48.141;58.212;85.678;18.845;15.411;11.978;0.9460;0.5798;0.9537;0.8850
R25;REM;26180.1;26190.5;10.40;16.632;15.106;10.757;0.7095;0.5569;0.5875;23.422;28.687;98.190;65.918;27.695;12.207;39.291;19.531;0.4044;17.548;0.6485;0.4349
R25;REM;26339.0;26349.5;10.50;0.0687;0.0610;10.071;0.0992;0.0916;0.0763;126.190;42.267;111.923;132.446;32.578;244.293;10.300;0.8469;0.7095;0.8011;21.973;0.3586
R25;REM;26010.0;26020.7;10.70;17.471;14.801;13.809;15.793;14.877;16.708;26.627;60.501;28.305;0.7935;0.3128;23.270;66.833;30.212;18.463;65.002;10.300;0.8011
R25;REM;7279.0;7289.8;10.80;0.4959;0.4272;0.3891;0.4044;0.5493;0.3586;11.597;14.648;12.741;0.5493;10.147;0.6638;45.471;32.654;24.490;0.6866;34.485;0.9232
R25;REM;26116.1;26126.9;10.80;21.591;18.005;11.749;0.9613;0.6409;0.5188;102.692;77.515;39.978;25.024;33.798;14.954;15.869;17.395;13.428;10.529;0.5569;0.5798
R25;REM;2339.0;2349.9;10.90;0.5875;0.4807;0.3891;0.3281;0.1068;0.0992;23.117;58.823;19.531;21.820;169.754;330.963;62.485;15.869;11.063;19.455;19.989;43.182
R25;REM;2601.0;2611.9;10.90;0.8240;0.6256;0.4425;0.3510;0.1602;0.0992;25.558;21.591;33.722;24.490;0.8392;0.4196;46.692;19.608;21.744;29.602;0.4654;10.605
R25;REM;3505.0;3515.9;10.90;0.8163;0.8011;0.6638;0.5569;0.5417;0.2899;0.8774;56.686;127.182;50.049;19.531;37.308;115.051;18.005;16.937;22.354;63.248;11.368
R25;REM;19750.1;19761.0;10.90;0.0839;0.0763;0.0687;0.0687;0.0610;0.0610;0.7172;65.842;19.455;0.5417;0.3586;23.193;30.441;18.234;17.319;55.389;21.744;0.7706
R25;REM;13428.0;13439.0;11.00;0.0916;0.0992;0.0916;0.0916;0.0916;0.0916;0.4654;15.793;21.667;0.6943;0.1907;0.2975;39.215;19.760;21.973;13.123;0.2670;0.1373
R25;REM;22579.0;22590.0;11.00;0.5341;0.3052;0.1907;0.1297;0.1297;0.1297;19.379;30.746;58.289;16.785;0.1755;15.030;51.575;13.046;0.9232;0.7935;0.9079;0.4654
R25;REM;25943.0;25954.1;11.10;14.343;13.351;0.8774;0.7935;0.7935;0.7553;0.1907;40.741;64.011;80.872;15.259;0.9766;139.313;23.727;0.9537;0.8392;0.1526;0.0839
R25;REM;15735.1;15746.3;11.20;0.1373;0.1755;0.1144;0.1144;0.1221;0.1221;0.6638;76.370;193.176;73.624;51.575;72.632;32.959;0.9232;0.3891;0.6104;0.9613;0.2823
R25;REM;26088.0;26099.2;11.20;16.937;16.403;13.733;10.300;0.6104;0.4807;0.5188;17.242;40.741;42.038;23.956;25.711;54.703;16.937;18.463;17.014;0.6790;0.6638
R25;REM;7685.0;7696.3;11.30;0.6638;0.4349;0.2060;0.0916;0.0763;0.2289;33.875;29.831;245.285;208.740;0.4120;0.9537;39.749;17.853;0.2670;0.4654;0.4120;0.3815
R25;REM;13530.0;13541.4;11.40;0.0992;0.0916;0.1068;0.0839;0.0916;0.0916;12.131;22.964;23.804;0.9842;0.2289;0.2441;38.147;0.9537;15.259;12.589;0.5798;0.2518
R25;REM;3885.0;3896.4;11.40;0.1221;0.2060;0.1297;0.1678;0.1221;0.1221;0.6104;21.515;23.956;119.858;145.798;90.027;0.6638;23.422;11.520;0.8469;0.5112;0.4120
R25;REM;2119.0;2130.5;11.50;0.7477;0.6485;0.4272;0.2594;0.2899;0.7629;0.8545;46.387;38.071;10.071;0.1068;19.760;59.433;0.6027;19.073;77.515;68.207;19.913
R25;REM;24008.0;24019.6;11.60;0.2289;0.1373;0.2289;0.1373;0.1297;0.1450;0.7935;208.969;468.063;34.409;63.705;65.460;68.893;10.681;0.8087;20.142;0.4501;0.3967
R25;REM;14185.0;14196.6;11.60;0.1450;0.1678;0.1678;0.1144;0.0763;0.0763;13.275;103.531;13.428;18.539;50.888;0.8240;66.071;14.343;16.251;21.515;0.8316;0.8163
R25;REM;14956.1;14967.7;11.60;0.1907;0.1526;0.1526;0.1373;0.1144;0.1221;0.4272;25.406;22.812;10.376;12.741;30.289;59.586;12.283;0.9079;41.809;35.934;51.804
R25;REM;25840.1;25851.8;11.70;0.3357;0.2289;0.2747;0.1602;0.0534;0.0610;17.471;36.011;0.8316;17.776;43.793;0.8163;12.360;28.610;18.234;18.997;0.3128;0.9918
R25;REM;2863.0;2875.0;12.00;32.425;0.1831;0.1144;0.0839;0.0839;0.1068;13.275;41.122;109.711;10.147;10.910;0.4883;55.237;0.9003;0.5341;25.864;22.964;21.286
R25;REM;11431.0;11443.0;12.00;0.2289;0.2365;0.2441;0.2365;0.2365;0.3128;0.7935;34.409;98.419;0.6790;0.0534;0.1221;41.962;28.763;12.436;25.787;0.9079;48.904
R25;REM;25729.0;25741.1;12.10;12.360;0.9842;0.8698;0.8392;0.6790;0.6256;0.2747;27.847;29.755;28.534;51.956;65.079;35.782;19.150;15.564;15.793;0.7248;16.556
R25;REM;28789.0;28801.1;12.10;0.0992;0.0687;0.0458;0.0458;0.0534;0.0610;0.5951;24.948;21.286;99.106;213.470;98.724;51.804;14.038;15.106;0.9384;0.7019;13.657
R25;REM;9768.0;9780.2;12.20;0.4349;0.4730;0.4120;0.4272;0.2747;0.2365;0.3357;33.340;23.041;0.4730;0.4730;10.223;26.398;0.8316;25.406;0.7629;46.158;28.915
R25;REM;20533.0;20545.3;12.30;0.0610;0.0610;0.0610;0.0610;0.0534;0.0610;20.370;53.558;23.499;22.202;13.733;12.817;44.022;27.161;14.954;0.4501;0.1755;0.2899
R25;REM;7985.0;7997.4;12.40;0.2975;0.2747;0.1068;0.0534;0.0458;0.0458;0.6485;80.261;59.204;17.776;53.177;12.512;110.779;25.177;10.757;37.003;0.7782;0.3204
R25;REM;18655.1;18667.5;12.40;0.0229;0.0000;0.0076;0.4501;0.0000;0.0000;0.7858;16.632;20.676;84.152;43.259;54.703;14.954;15.717;22.659;0.3738;0.2136;0.6180
R25;REM;26264.0;26276.5;12.50;15.717;16.785;14.572;12.589;0.5417;0.2747;0.1221;32.120;98.572;0.7324;10.300;26.093;62.714;12.360;0.9766;33.188;0.0610;0.1678
R25;REM;18604.0;18616.9;12.90;0.0153;0.0534;0.9155;0.1831;0.0076;0.0076;0.1907;14.648;35.706;92.163;15.335;24.338;47.760;14.038;11.826;0.5722;0.2594;0.1450
R25;REM;26523.0;26536.0;13.00;0.0610;0.0610;0.0687;0.0687;0.0839;0.0916;0.9613;485.840;184.250;104.675;235.138;235.443;40.588;11.292;10.834;0.4120;0.0916;0.5875
R25;REM;22964.0;22977.2;13.20;0.4044;0.3052;0.2441;0.2823;0.1144;0.1297;0.4272;17.471;21.744;32.578;45.547;0.9613;62.408;18.387;20.065;14.343;0.1907;0.3281
R25;REM;23840.0;23853.2;13.20;22.049;0.9079;0.4425;0.1755;0.1755;0.1907;81.711;31.815;14.038;95.749;191.574;0.9918;0.3738;0.5875;16.174;0.5035;0.9155;12.131
R25;REM;28700.0;28713.2;13.20;0.4272;0.2441;0.0534;0.0458;0.0381;0.0381;26.398;53.787;92.316;11.902;18.311;18.311;74.692;14.648;0.3128;13.351;0.6866;10.986
R25;REM;3305.0;3318.3;13.30;0.6104;0.6409;0.4959;0.4272;0.4349;0.3738;10.681;27.313;37.384;45.166;36.392;0.8163;54.779;11.597;14.572;32.425;0.2213;0.3815
R25;REM;12577.0;12590.4;13.40;0.3891;0.3586;0.2594;0.2899;0.2060;0.1831;0.5875;38.071;88.043;0.6714;14.191;53.940;60.196;22.430;14.648;10.757;0.4196;23.956
R25;REM;28379.0;28392.6;13.60;37.003;0.0458;0.0458;0.0458;0.0458;0.1297;151.901;11.673;227.966;84.305;11.826;29.144;0.3357;12.512;0.2518;0.9079;0.4272;12.207
R25;REM;14728.1;14741.7;13.60;0.0687;0.0687;0.0458;0.0381;0.0381;0.0381;0.7248;18.997;317.230;210.037;21.057;0.7706;10.147;14.572;0.8392;0.1450;0.3510;0.1831
R25;REM;16990.0;17003.7;13.70;0.0458;0.0534;0.1526;0.0381;0.0534;0.0458;11.826;11.139;53.482;32.120;74.081;82.855;48.523;0.9232;0.3052;0.6866;0.3510;0.1068
R25;REM;17106.0;17120.1;14.10;0.1678;0.0687;0.0610;0.0534;0.0458;0.0534;0.8545;25.177;15.945;99.716;40.894;32.806;0.7935;11.902;22.278;11.063;10.300;17.319
R25;REM;3450.0;3464.1;14.10;0.6561;0.5875;0.4807;0.2289;0.1068;0.0839;14.648;36.545;34.180;26.245;42.801;25.177;34.409;28.076;18.311;18.921;47.302;438.309
R25;REM;25672.0;25686.2;14.20;0.9003;0.7629;0.5798;0.2670;0.1068;0.1068;0.9995;31.128;19.531;106.583;25.330;0.5569;40.207;18.311;22.736;0.6027;0.0610;0.2899
R25;REM;23455.1;23469.7;14.60;0.8011;0.9003;0.7477;0.5188;0.4654;0.4349;0.8087;20.218;25.711;0.4730;0.2518;0.5569;34.943;26.932;12.970;15.030;0.5569;0.1297
R25;REM;28523.0;28537.8;14.80;0.1221;0.0458;0.0916;0.0458;0.0534;0.0534;0.8163;95.749;65.155;239.639;38.147;0.5722;23.651;0.5112;12.589;0.5493;0.9384;12.360
R25;REM;26939.0;26954.0;15.00;0.6790;0.5035;0.3433;0.2213;0.1144;0.0687;10.376;58.746;35.629;16.937;30.136;14.801;123.367;15.411;0.3586;15.259;0.2670;0.4578
R25;REM;28093.1;28108.1;15.00;17.700;18.158;0.6561;0.2823;0.2289;0.1755;13.657;23.956;17.319;24.719;11.139;54.169;26.550;12.512;10.529;0.8698;19.608;32.578
R25;REM;25908.0;25923.1;15.10;19.760;17.166;18.082;17.014;18.082;18.539;22.125;32.501;15.106;10.071;28.152;16.556;10.223;13.123;18.768;54.626;0.4044;0.4654
R25;REM;7197.0;7212.1;15.10;0.8316;0.6866;0.4349;0.3357;0.1678;0.2365;31.662;10.300;89.569;49.210;26.703;0.2365;30.212;16.937;0.8163;11.749;0.0687;0.1450
R25;REM;28411.1;28426.3;15.20;17.166;0.6790;0.2060;0.1221;0.0839;0.0916;0.6790;20.447;38.605;0.7629;0.7019;14.954;120.697;21.057;13.428;17.929;219.574;112.610
R25;REM;26439.1;26454.4;15.30;0.0610;0.0687;0.0763;0.0687;0.0610;0.0687;27.618;70.190;167.770;0.8087;15.030;55.771;28.687;19.379;0.6104;53.864;0.2594;0.3586
R25;REM;26376.1;26391.8;15.70;18.463;0.9766;0.8087;0.8698;0.3662;0.2136;0.6790;14.954;20.905;0.5646;18.082;11.826;42.496;10.529;20.447;35.629;20.599;11.749
R25;REM;23259.0;23274.8;15.80;0.5188;0.4807;0.4883;0.4730;0.4120;0.3738;18.311;35.400;13.962;36.011;0.5493;0.7172;111.237;17.242;15.488;10.757;12.207;50.735
R25;REM;7780.0;7795.8;15.80;0.1678;0.1373;0.0763;0.0687;0.0763;0.0687;10.376;11.063;47.073;81.024;137.558;463.943;43.411;11.749;11.749;0.8087;28.763;20.599
R25;REM;23933.0;23949.8;16.80;78.049;0.5341;0.1755;0.2060;0.8621;13.733;0.6790;78.888;23.727;0.2975;22.278;25.940;94.910;0.7019;0.7477;17.242;0.1450;0.1602
R25;REM;23394.1;23411.0;16.90;0.2365;0.1678;0.1221;0.1221;0.1144;0.1144;10.223;204.468;33.875;15.259;0.7172;10.376;99.106;11.597;10.681;37.613;18.082;43.411
R25;REM;28286.0;28303.0;17.00;0.5569;0.3738;0.1221;0.0534;0.0458;0.0610;17.166;15.869;115.128;159.454;121.765;138.321;53.406;19.989;0.5341;18.463;0.4425;0.3815
R25;REM;26202.1;26219.6;17.50;17.014;12.207;0.6714;0.5112;0.4578;0.4501;0.3510;37.842;40.207;100.708;42.953;18.387;34.943;14.038;0.9995;0.3281;0.5264;0.6790
R25;REM;4047.0;4064.6;17.60;19.836;16.632;13.580;0.7782;0.0687;0.0610;0.7477;28.763;111.847;51.651;42.343;48.065;15.030;11.215;0.6790;16.937;21.515;0.9689
R25;REM;22890.0;22908.0;18.00;0.8163;0.4349;0.4425;0.5417;0.1297;0.1221;0.9079;37.384;23.804;99.030;66.910;156.021;12.131;0.6638;10.757;0.9613;0.4425;0.1831
R25;REM;28055.0;28073.3;18.30;0.6180;0.6027;0.3815;0.1068;0.0916;0.0763;14.801;30.441;23.880;82.932;12.741;32.578;48.370;37.918;19.531;0.6180;0.1297;0.1373
R25;REM;4152.0;4170.4;18.40;0.0610;0.0687;0.0687;0.0610;0.0610;0.0610;0.4349;94.452;587.311;407.028;98.190;96.054;118.637;23.651;0.7095;0.4730;0.1297;0.1755
R25;REM;3723.0;3741.4;18.40;0.6561;0.5188;0.4120;0.3586;0.3662;0.3738;15.564;28.992;23.117;149.002;25.177;47.150;70.572;13.885;13.657;0.6714;0.1297;0.1373
R25;REM;3077.0;3095.5;18.50;0.4883;0.4807;0.2365;0.0916;0.0687;0.0610;18.311;79.041;50.354;214.310;54.779;28.687;63.400;21.439;21.973;14.191;0.1450;0.1984
R25;REM;2913.0;2931.9;18.90;0.6332;0.6866;0.5569;0.3357;0.1678;0.0992;17.166;40.054;56.992;57.220;25.787;0.8469;149.231;16.708;0.4807;0.6485;0.1755;0.5035
R25;REM;4008.1;4027.1;19.00;51.498;0.4349;0.1221;0.1297;0.1221;0.1221;68.283;40.588;149.612;124.054;177.612;130.386;0.9232;17.776;0.4044;0.9384;18.082;0.7172
R25;REM;9062.1;9081.1;19.00;0.1678;0.1602;0.1526;0.1450;0.0992;0.0458;0.6638;12.894;18.463;34.103;102.921;28.305;23.575;0.8850;16.556;19.455;25.253;43.488
R25;REM;26708.0;26727.4;19.40;0.6943;0.4883;0.2518;0.1373;0.0992;0.0763;0.5112;36.697;46.539;0.6943;71.564;220.337;49.820;0.8392;11.139;21.515;0.3433;35.400
R25;REM;4335.0;4354.8;19.80;0.7477;0.6104;0.4654;0.2823;0.4959;0.3204;0.8469;48.447;47.226;11.444;23.499;13.580;88.730;11.520;18.082;20.981;23.346;23.727
R25;REM;25781.1;25801.1;20.00;14.725;0.8926;0.5798;0.4120;0.3967;0.3128;0.7858;19.684;13.733;18.539;19.836;0.9308;13.580;12.970;14.801;12.970;0.2975;0.6638
R25;REM;26141.0;26161.0;20.00;19.073;17.166;14.877;13.046;0.8240;0.6332;21.362;57.678;77.744;156.097;46.387;11.749;39.749;21.744;44.785;14.877;0.2289;0.1678
R25;REM;26313.1;26333.1;20.00;20.752;18.463;14.877;0.8011;0.3357;0.2060;0.5035;55.542;55.084;56.381;56.305;35.477;22.888;0.9155;13.809;10.529;0.2975;0.6638
R25;REM;28323.0;28343.0;20.00;10.452;0.5646;0.2670;0.1755;0.1144;0.0534;0.4501;21.515;10.681;0.5341;13.275;50.049;28.610;21.820;21.896;16.479;0.3128;0.4807
R25;REM;24677.0;24697.1;20.10;0.4578;0.5035;0.3128;0.1602;0.1984;0.2060;0.4044;30.746;70.190;36.697;12.054;0.3052;188.141;30.212;0.8469;0.5798;0.9079;11.444
R25;REM;26414.0;26434.1;20.10;19.379;11.063;0.7095;0.4501;0.2289;0.2060;0.5341;15.869;23.727;0.7095;0.9079;35.782;29.221;11.978;19.455;16.861;0.9079;11.444
R25;REM;28138.0;28158.1;20.10;23.651;17.700;0.5341;0.2823;0.2670;0.1831;12.589;28.687;78.354;44.785;80.795;33.798;47.379;0.4120;0.3052;0.8469;14.114;0.9918
R25;REM;7890.1;7910.5;20.40;14.572;13.733;16.937;0.6943;0.5646;0.3204;0.9689;35.019;17.242;29.297;0.9232;14.801;43.335;24.261;11.673;27.084;41.351;29.297
R25;REM;2444.0;2465.8;21.80;0.7782;0.8240;0.6027;0.2899;0.3586;0.3357;26.550;139.465;82.245;11.673;0.8850;36.850;59.814;18.997;15.793;18.921;0.7095;15.564
R25;REM;2666.1;2688.0;21.90;0.8392;0.7248;0.6866;0.7477;0.4807;0.3967;20.523;111.694;24.261;26.093;73.166;34.027;74.921;22.049;24.643;97.427;0.9689;0.9232
R25;REM;23777.1;23799.4;22.30;0.2289;0.4959;0.1450;0.1450;0.1602;0.1526;12.665;35.934;46.463;0.2213;0.1526;0.2365;32.806;28.687;17.929;53.635;11.520;10.300
R25;REM;3854.0;3879.0;25.00;10.223;0.9613;0.6027;0.3357;0.2518;0.1907;0.6790;46.844;46.234;16.556;18.082;22.049;61.417;24.872;10.300;17.548;0.4349;0.4654
R25;REM;23889.0;23918.1;29.10;25.711;17.090;0.6943;0.4272;0.1678;0.2136;93.842;99.564;12.436;0.5951;36.545;46.234;17.776;0.6866;17.242;0.8698;0.8698;0.0763
R25;REM;8163.0;8193.0;30.00;0.2518;0.2213;0.1755;0.1831;0.2136;0.2136;38.376;25.558;56.686;45.013;11.520;0.8850;10.300;40.131;12.817;21.362;0.1373;0.1678
R25;REM;3962.0;3992.1;30.10;0.7782;0.4349;0.1068;0.0916;0.0992;0.0763;22.736;31.967;108.566;51.727;13.580;75.912;40.588;30.518;0.5493;10.986;0.0458;0.2670
R25;REM;11825.0;11855.1;30.10;0.1297;0.1221;0.1144;0.0687;0.0305;0.0381;0.4196;68.283;69.504;40.131;36.545;12.970;35.553;25.024;16.785;29.221;0.2289;0.1221
R26;REM;23655.0;23659.0;4.00;16.861;17.319;14.420;14.648;29.907;53.101;0.5417;34.561;18.616;11.978;0.1297;0.0305;13.275;0.3510;0.2289;0.1450;0.4044;
R26;REM;23655.0;23659.0;4.00;16.861;17.319;14.420;14.648;29.907;53.101;0.5417;34.561;18.616;11.978;0.1297;0.0305;13.275;0.3510;0.2289;0.1450;29.907;0.0000
R26;REM;8981.1;8985.3;4.20;0.9384;0.8392;0.7858;0.8392;0.7324;294.647;32.501;42.496;26.016;64.468;141.602;67.368;21.896;0.8240;0.6790;0.6332;12.207;0.0000
R26;REM;8981.1;8985.3;4.20;0.9384;0.8392;0.7858;0.8392;0.7324;294.647;32.501;42.496;26.016;64.468;141.602;67.368;21.896;0.8240;0.6790;0.6332;49.133;0.0000
R26;REM;18200.1;18204.9;4.80;12.512;11.902;11.292;14.420;10.834;40.054;25.558;41.428;41.199;43.564;0.0229;0.8087;35.324;0.5493;0.2747;0.1907;0.4501;0.0000
R26;REM;18200.1;18204.9;4.80;12.512;11.902;11.292;14.420;10.834;40.054;25.558;41.428;41.199;43.564;0.0229;0.8087;35.324;0.5493;0.2747;0.1907;35.172;28.229
R26;REM;20670.0;20675.0;5.00;13.504;12.207;10.376;10.986;10.071;31.204;0.7706;54.169;201.492;137.100;0.4654;17.166;49.667;0.4654;0.1221;0.0687;22.354;75.684
R26;REM;26029.0;26034.0;5.00;19.150;19.455;19.531;16.937;14.954;38.223;18.692;17.624;70.267;16.937;0.3967;0.2365;0.9995;18.768;0.2136;0.4883;0.3052;0.3357
R26;REM;20670.0;20675.0;5.00;13.504;12.207;10.376;10.986;10.071;31.204;0.7706;54.169;201.492;137.100;0.4654;17.166;49.667;0.4654;0.1221;0.0687;27.237;0.3967
R26;REM;26029.0;26034.0;5.00;19.150;19.455;19.531;16.937;14.954;38.223;18.692;17.624;70.267;16.937;0.3967;0.2365;0.9995;18.768;0.2136;0.4883;12.436;0.4272
R26;REM;1057.0;1062.1;5.10;10.834;0.9232;0.8926;0.8850;10.681;27.847;15.488;21.362;19.684;29.221;0.1984;33.035;37.613;11.902;0.3662;0.1526;0.9384;0.7019
R26;REM;1057.0;1062.1;5.10;10.834;0.9232;0.8926;0.8850;10.681;27.847;15.488;21.362;19.684;29.221;0.1984;33.035;37.613;11.902;0.3662;0.1526;18.082;20.752
R26;REM;12448.0;12453.5;5.50;13.962;17.166;14.496;14.038;11.749;14.191;10.986;28.839;36.545;18.768;0.4730;0.3433;89.798;0.7935;0.1602;0.2594;0.4196;0.4120
R26;REM;15730.0;15735.5;5.50;10.757;0.9308;0.8926;0.8774;17.929;17.776;42.572;126.495;26.855;20.370;0.4044;10.681;28.992;0.5341;0.5112;11.978;14.725;12.054
R26;REM;24160.0;24165.5;5.50;0.3510;0.4883;0.3662;0.3586;0.3128;0.4425;0.2747;59.433;37.460;0.5798;0.0076;0.0458;0.8545;0.0839;0.2213;0.1831;26.093;95.215
R26;REM;12448.0;12453.5;5.50;13.962;17.166;14.496;14.038;11.749;14.191;10.986;28.839;36.545;18.768;0.4730;0.3433;89.798;0.7935;0.1602;0.2594;0.3052;0.3204
R26;REM;15730.0;15735.5;5.50;10.757;0.9308;0.8926;0.8774;17.929;17.776;42.572;126.495;26.855;20.370;0.4044;10.681;28.992;0.5341;0.5112;11.978;0.2518;0.1526
R26;REM;24160.0;24165.5;5.50;0.3510;0.4883;0.3662;0.3586;0.3128;0.4425;0.2747;59.433;37.460;0.5798;0.0076;0.0458;0.8545;0.0839;0.2213;0.1831;18.387;13.428
R26;REM;14235.0;14240.6;5.60;0.5875;0.6256;0.5722;0.6409;0.6027;0.8392;19.150;45.471;91.248;56.000;32.043;14.114;22.125;0.5188;0.1221;0.0916;11.063;0.9003
R26;REM;15761.0;15766.6;5.60;10.529;0.7401;0.6332;0.5569;0.6104;0.6561;11.444;65.460;40.054;11.139;0.2289;0.0229;76.370;0.1755;0.2289;0.5722;14.267;49.515
R26;REM;14235.0;14240.6;5.60;0.5875;0.6256;0.5722;0.6409;0.6027;0.8392;19.150;45.471;91.248;56.000;32.043;14.114;22.125;0.5188;0.1221;0.0916;0.2518;0.1526
R26;REM;15761.0;15766.6;5.60;10.529;0.7401;0.6332;0.5569;0.6104;0.6561;11.444;65.460;40.054;11.139;0.2289;0.0229;76.370;0.1755;0.2289;0.5722;0.8011;49.057
R26;REM;18405.0;18410.7;5.70;30.746;17.929;14.114;14.648;21.591;16.556;0.4272;19.302;13.275;14.572;0.2975;0.4196;10.452;0.0839;0.0916;0.2518;0.1068;0.0687
R26;REM;18405.0;18410.7;5.70;30.746;17.929;14.114;14.648;21.591;16.556;0.4272;19.302;13.275;14.572;0.2975;0.4196;10.452;0.0839;0.0916;0.2518;29.221;59.509
R26;REM;8584.0;8590.0;6.00;0.6332;0.6943;0.5493;0.4807;0.4425;0.4578;0.9308;43.259;21.362;10.452;0.0534;0.2823;41.046;0.8926;0.1144;0.1755;0.3967;0.8469
R26;REM;8584.0;8590.0;6.00;0.6332;0.6943;0.5493;0.4807;0.4425;0.4578;0.9308;43.259;21.362;10.452;0.0534;0.2823;41.046;0.8926;0.1144;0.1755;10.681;0.7706
R26;REM;20541.0;20547.1;6.10;15.945;14.725;12.970;12.970;14.954;15.106;0.6943;16.632;34.103;0.6485;0.1297;0.2213;40.588;10.605;0.3891;0.7095;0.7858;0.6027
R26;REM;20541.0;20547.1;6.10;15.945;14.725;12.970;12.970;14.954;15.106;0.6943;16.632;34.103;0.6485;0.1297;0.2213;40.588;10.605;0.3891;0.7095;0.9995;0.2441
R26;REM;21142.1;21148.3;6.20;0.8545;0.6790;0.7629;0.6638;0.7935;14.114;0.5035;38.986;51.880;0.4730;0.0153;0.0610;82.321;0.3967;0.1755;11.826;24.414;0.6714
R26;REM;21142.1;21148.3;6.20;0.8545;0.6790;0.7629;0.6638;0.7935;14.114;0.5035;38.986;51.880;0.4730;0.0153;0.0610;82.321;0.3967;0.1755;11.826;0.1678;0.1907
R26;REM;25706.0;25712.3;6.30;10.605;11.749;12.283;11.215;13.351;14.954;0.6027;15.182;40.894;34.561;0.0839;0.0763;12.131;0.5493;0.4807;0.1755;16.098;22.659
R26;REM;25706.0;25712.3;6.30;10.605;11.749;12.283;11.215;13.351;14.954;0.6027;15.182;40.894;34.561;0.0839;0.0763;12.131;0.5493;0.4807;0.1755;13.351;11.292
R26;REM;21729.0;21735.4;6.40;19.379;0.4425;0.4425;0.3967;0.4272;0.4272;0.2518;33.340;23.117;87.433;43.106;0.5646;139.694;0.4349;0.2289;0.0687;16.098;22.659
R26;REM;21729.0;21735.4;6.40;19.379;0.4425;0.4425;0.3967;0.4272;0.4272;0.2518;33.340;23.117;87.433;43.106;0.5646;139.694;0.4349;0.2289;0.0687;0.5493;0.0839
R26;REM;144.0;150.6;6.60;22.430;12.283;10.071;0.8240;12.589;0.8774;28.839;12.360;22.049;10.376;0.4501;0.0381;0.2670;0.2823;0.4807;14.191;0.9918;13.733
R26;REM;144.0;150.6;6.60;22.430;12.283;10.071;0.8240;12.589;0.8774;28.839;12.360;22.049;10.376;0.4501;0.0381;0.2670;0.2823;0.4807;14.191;31.586;27.695
R26;REM;1119.0;1125.7;6.70;0.8316;0.7858;0.8011;0.7935;0.7782;0.7095;0.9995;27.161;45.090;15.259;10.757;0.2136;42.496;0.8850;0.1068;0.3433;0.6485;0.4578
R26;REM;1119.0;1125.7;6.70;0.8316;0.7858;0.8011;0.7935;0.7782;0.7095;0.9995;27.161;45.090;15.259;10.757;0.2136;42.496;0.8850;0.1068;0.3433;38.834;24.643
R26;REM;27708.1;27714.8;6.70;0.9155;10.300;0.8926;0.8545;0.8850;0.9384;10.834;17.090;27.771;26.627;0.0229;0.0534;19.760;0.2823;0.1526;12.741;0.1373;0.2899
R26;REM;27708.1;27714.8;6.70;0.9155;10.300;0.8926;0.8545;0.8850;0.9384;10.834;17.090;27.771;26.627;0.0229;0.0534;19.760;0.2823;0.1526;12.741;71.945;49.744
R26;REM;16547.1;16554.1;7.00;32.806;15.640;11.673;11.826;0.9232;0.7095;14.114;19.989;22.354;141.449;325.317;128.326;21.286;10.910;10.300;0.1373;0.4120;0.0458
R26;REM;16547.1;16554.1;7.00;32.806;15.640;11.673;11.826;0.9232;0.7095;14.114;19.989;22.354;141.449;325.317;128.326;21.286;10.910;10.300;0.1373;0.3510;0.5722
R26;REM;21250.0;21257.1;7.10;0.6790;10.757;10.910;0.6561;0.6256;0.6714;0.0839;40.359;18.997;0.3586;0.1526;0.1755;78.430;0.5569;0.3281;15.717;33.112;39.825
R26;REM;21250.0;21257.1;7.10;0.6790;10.757;10.910;0.6561;0.6256;0.6714;0.0839;40.359;18.997;0.3586;0.1526;0.1755;78.430;0.5569;0.3281;15.717;0.9842;0.1755
R26;REM;2575.0;2582.1;7.10;0.8850;0.8545;0.9384;19.989;11.749;17.548;0.2747;28.305;42.648;64.468;0.2823;37.689;28.381;0.1984;0.0916;0.0916;86.365;14.801
R26;REM;2575.0;2582.1;7.10;0.8850;0.8545;0.9384;19.989;11.749;17.548;0.2747;28.305;42.648;64.468;0.2823;37.689;28.381;0.1984;0.0916;0.0916;29.907;30.060
R26;REM;1003.0;1010.3;7.30;0.9460;10.529;0.8240;0.8087;0.8469;0.8087;0.4044;23.422;33.646;36.697;14.114;0.7095;28.152;0.5035;0.1297;0.1068;152.817;44.174
R26;REM;1003.0;1010.3;7.30;0.9460;10.529;0.8240;0.8087;0.8469;0.8087;0.4044;23.422;33.646;36.697;14.114;0.7095;28.152;0.5035;0.1297;0.1068;18.539;0.6409
R26;REM;272.0;279.3;7.30;0.9003;0.8621;0.9079;0.8774;0.8926;0.9232;0.1907;26.093;53.940;22.202;0.0381;0.0076;61.874;0.2899;0.4654;0.2594;16.327;0.3204
R26;REM;272.0;279.3;7.30;0.9003;0.8621;0.9079;0.8774;0.8926;0.9232;0.1907;26.093;53.940;22.202;0.0381;0.0076;61.874;0.2899;0.4654;0.2594;60.425;15.182
R26;REM;4866.1;4873.5;7.40;0.8163;0.7401;0.7629;0.7019;0.7782;30.518;10.300;50.354;29.068;27.542;0.2136;0.2594;27.084;0.4959;0.8774;0.4959;180.664;83.008
R26;REM;4866.1;4873.5;7.40;0.8163;0.7401;0.7629;0.7019;0.7782;30.518;10.300;50.354;29.068;27.542;0.2136;0.2594;27.084;0.4959;0.8774;0.4959;0.1373;0.1755
R26;REM;10379.1;10386.6;7.50;10.147;11.597;11.520;0.9918;0.8698;0.9537;0.1602;177.307;382.156;106.125;15.488;22.202;0.9689;0.1373;0.0839;0.2060;33.112;10.834
R26;REM;10379.1;10386.6;7.50;10.147;11.597;11.520;0.9918;0.8698;0.9537;0.1602;177.307;382.156;106.125;15.488;22.202;0.9689;0.1373;0.0839;0.2060;78.812;63.477
R26;REM;12839.0;12846.7;7.70;20.142;19.379;15.564;16.022;15.259;18.692;29.068;49.515;12.131;163.193;0.5646;0.0992;42.725;0.6256;14.648;0.1144;0.2823;0.2289
R26;REM;12839.0;12846.7;7.70;20.142;19.379;15.564;16.022;15.259;18.692;29.068;49.515;12.131;163.193;0.5646;0.0992;42.725;0.6256;14.648;0.1144;56.305;27.847
R26;REM;8336.0;8343.8;7.80;0.5264;0.5417;0.9995;0.4959;0.3433;0.2975;25.482;28.381;38.452;51.041;67.978;26.855;29.755;0.6485;0.1755;0.1907;51.727;12.360
R26;REM;9214.0;9221.8;7.80;21.896;17.471;14.114;11.978;10.605;0.9384;10.986;11.063;46.997;12.512;0.6027;0.1907;18.005;0.3128;0.4120;0.8087;36.240;31.281
R26;REM;14412.0;14419.8;7.80;0.6866;0.6638;0.6866;0.7782;0.6790;16.632;0.4272;25.330;34.637;29.526;0.6256;0.3967;0.3967;0.9613;0.8087;0.2213;34.714;28.229
R26;REM;16324.1;16331.9;7.80;34.866;0.8698;0.6485;0.6256;11.597;0.5798;17.319;19.684;66.528;31.281;28.763;40.436;0.3815;14.954;0.2518;0.2518;0.5722;0.5798
R26;REM;8336.0;8343.8;7.80;0.5264;0.5417;0.9995;0.4959;0.3433;0.2975;25.482;28.381;38.452;51.041;67.978;26.855;29.755;0.6485;0.1755;0.1907;0.3510;18.158
R26;REM;9214.0;9221.8;7.80;21.896;17.471;14.114;11.978;10.605;0.9384;10.986;11.063;46.997;12.512;0.6027;0.1907;18.005;0.3128;0.4120;0.8087;88.272;41.046
R26;REM;14412.0;14419.8;7.80;0.6866;0.6638;0.6866;0.7782;0.6790;16.632;0.4272;25.330;34.637;29.526;0.6256;0.3967;0.3967;0.9613;0.8087;0.2213;0.0381;0.1831
R26;REM;16324.1;16331.9;7.80;34.866;0.8698;0.6485;0.6256;11.597;0.5798;17.319;19.684;66.528;31.281;28.763;40.436;0.3815;14.954;0.2518;0.2518;12.360;24.185
R26;REM;7225.0;7232.9;7.90;11.139;0.7629;0.7019;0.6943;0.6485;0.6180;0.2060;138.397;168.991;312.653;181.274;207.214;59.433;0.3662;0.1450;0.0381;0.0381;0.1831
R26;REM;7225.0;7232.9;7.90;11.139;0.7629;0.7019;0.6943;0.6485;0.6180;0.2060;138.397;168.991;312.653;181.274;207.214;59.433;0.3662;0.1450;0.0381;51.727;90.714
R26;REM;13761.0;13769.4;8.40;52.414;18.997;18.616;14.420;26.932;11.978;72.021;54.245;144.501;720.978;237.885;52.643;0.3204;0.2823;0.8011;0.3204;0.1755;0.5035
R26;REM;13761.0;13769.4;8.40;52.414;18.997;18.616;14.420;26.932;11.978;72.021;54.245;144.501;720.978;237.885;52.643;0.3204;0.2823;0.8011;0.3204;22.888;19.531
R26;REM;1216.0;1224.4;8.40;30.212;22.812;13.046;11.749;13.504;0.8240;0.6332;31.509;28.305;16.479;31.433;29.526;276.031;12.894;0.9460;0.4044;0.5035;0.5341
R26;REM;1216.0;1224.4;8.40;30.212;22.812;13.046;11.749;13.504;0.8240;0.6332;31.509;28.305;16.479;31.433;29.526;276.031;12.894;0.9460;0.4044;203.400;188.828
R26;REM;4454.0;4462.5;8.50;0.7248;0.7172;0.7401;0.7553;0.6790;0.7019;0.2823;76.065;336.685;101.318;90.408;25.101;109.329;0.4578;0.0763;0.1144;14.114;0.9918
R26;REM;4569.1;4577.6;8.50;0.8011;0.7629;0.7248;0.7172;18.692;24.414;0.6256;17.700;24.033;0.8240;0.4349;0.2365;39.673;0.2594;0.3128;0.6409;0.2213;0.3510
R26;REM;4454.0;4462.5;8.50;0.7248;0.7172;0.7401;0.7553;0.6790;0.7019;0.2823;76.065;336.685;101.318;90.408;25.101;109.329;0.4578;0.0763;0.1144;72.021;45.547
R26;REM;4569.1;4577.6;8.50;0.8011;0.7629;0.7248;0.7172;18.692;24.414;0.6256;17.700;24.033;0.8240;0.4349;0.2365;39.673;0.2594;0.3128;0.6409;43.564;51.804
R26;REM;945.0;953.6;8.60;10.986;0.8392;0.7858;0.7935;0.7935;0.7553;0.1297;45.395;58.594;13.657;0.8850;0.0992;207.977;0.5341;0.2594;0.4807;0.0610;0.0763
R26;REM;945.0;953.6;8.60;10.986;0.8392;0.7858;0.7935;0.7935;0.7553;0.1297;45.395;58.594;13.657;0.8850;0.0992;207.977;0.5341;0.2594;0.4807;107.498;44.098
R26;REM;15269.1;15277.8;8.70;0.9613;0.8698;0.9613;0.8087;0.8774;0.8163;0.3891;59.052;41.428;0.9918;44.174;18.082;47.913;0.5188;0.2289;0.4730;0.2747;0.5341
R26;REM;15269.1;15277.8;8.70;0.9613;0.8698;0.9613;0.8087;0.8774;0.8163;0.3891;59.052;41.428;0.9918;44.174;18.082;47.913;0.5188;0.2289;0.4730;0.9460;24.109
R26;REM;4120.1;4128.9;8.80;13.885;10.223;0.8850;0.8163;0.8240;0.8163;0.9995;15.717;49.667;27.466;45.013;160.599;40.512;0.6180;0.3967;0.7401;0.1907;0.1984
R26;REM;4120.1;4128.9;8.80;13.885;10.223;0.8850;0.8163;0.8240;0.8163;0.9995;15.717;49.667;27.466;45.013;160.599;40.512;0.6180;0.3967;0.7401;0.1755;0.1450
R26;REM;27015.1;27023.9;8.80;0.9079;0.8240;10.071;0.9003;0.8698;0.8469;0.5951;20.676;111.389;168.076;347.672;68.970;57.755;0.8698;0.0992;0.2060;35.629;31.281
R26;REM;27015.1;27023.9;8.80;0.9079;0.8240;10.071;0.9003;0.8698;0.8469;0.5951;20.676;111.389;168.076;347.672;68.970;57.755;0.8698;0.0992;0.2060;68.436;19.302
R26;REM;1173.0;1181.9;8.90;0.8698;0.9384;11.444;0.9079;0.8316;0.8163;0.4349;63.019;31.052;34.409;35.706;40.131;0.8926;0.0229;0.0687;0.1297;0.0687;0.0458
R26;REM;1173.0;1181.9;8.90;0.8698;0.9384;11.444;0.9079;0.8316;0.8163;0.4349;63.019;31.052;34.409;35.706;40.131;0.8926;0.0229;0.0687;0.1297;40.283;44.937
R26;REM;16188.0;16197.5;9.50;0.5341;0.5341;0.8926;0.7401;0.5722;0.6485;0.5264;74.158;67.749;73.471;19.150;133.209;13.123;0.6790;12.436;0.3967;30.136;12.741
R26;REM;16188.0;16197.5;9.50;0.5341;0.5341;0.8926;0.7401;0.5722;0.6485;0.5264;74.158;67.749;73.471;19.150;133.209;13.123;0.6790;12.436;0.3967;66.833;29.678
R26;REM;5661.0;5670.6;9.60;0.4959;0.5112;0.5112;0.5646;0.8774;0.4654;0.8469;76.981;62.561;374.832;174.332;181.351;19.760;0.2441;0.1831;0.0687;0.5875;0.6332
R26;REM;5661.0;5670.6;9.60;0.4959;0.5112;0.5112;0.5646;0.8774;0.4654;0.8469;76.981;62.561;374.832;174.332;181.351;19.760;0.2441;0.1831;0.0687;0.2670;0.3433
R26;REM;25178.0;25187.8;9.80;14.877;15.411;13.504;11.978;12.131;15.182;0.2975;19.302;48.447;35.629;0.0534;0.0687;71.869;10.834;0.1678;0.0916;0.1907;0.2899
R26;REM;25178.0;25187.8;9.80;14.877;15.411;13.504;11.978;12.131;15.182;0.2975;19.302;48.447;35.629;0.0534;0.0687;71.869;10.834;0.1678;0.0916;11.673;18.311
R26;REM;16667.0;16677.0;10.00;12.741;12.054;0.9613;0.9842;13.199;10.681;20.905;33.112;19.608;26.703;15.793;0.5341;85.602;0.8087;0.2670;0.3433;0.1907;0.0305
R26;REM;16667.0;16677.0;10.00;12.741;12.054;0.9613;0.9842;13.199;10.681;20.905;33.112;19.608;26.703;15.793;0.5341;85.602;0.8087;0.2670;0.3433;0.5493;11.749
R26;REM;22109.0;22119.3;10.30;0.6485;0.6104;0.5951;0.6485;0.5951;0.6790;14.191;28.305;17.395;86.670;390.244;307.922;47.302;0.6561;0.4883;0.1144;25.482;43.869
R26;REM;22109.0;22119.3;10.30;0.6485;0.6104;0.5951;0.6485;0.5951;0.6790;14.191;28.305;17.395;86.670;390.244;307.922;47.302;0.6561;0.4883;0.1144;10.071;0.2365
R26;REM;8796.0;8806.4;10.40;0.8698;0.7935;0.8011;0.7629;0.8774;0.8698;0.9689;84.610;49.362;33.340;31.891;90.714;27.924;0.7019;0.3738;0.1907;0.7248;0.2213
